,,data
10,647958,96.0
10,647959,83.0
10,647960,61.0
10,647961,30.0
10,647962,0.0
10,647963,-26.0
10,647964,-41.0
10,647965,-50.0
10,647966,-57.0
10,647967,-60.0
10,647968,-60.0
10,647969,-58.0
10,647970,-57.0
10,647971,-53.0
10,647972,-42.0
10,647973,-25.0
10,647974,-7.0
10,647975,-1.0
10,647976,-12.0
10,647977,-32.0
10,647978,-45.0
10,647979,-53.0
10,647980,-58.0
10,647981,-58.0
10,647982,-63.0
10,647983,-71.0
10,647984,8.0
10,647985,197.0
10,647986,278.0
10,647987,130.0
10,647988,-38.0
10,647989,-73.0
10,647990,-51.0
10,647991,-42.0
10,647992,-41.0
10,647993,-42.0
10,647994,-38.0
10,647995,-35.0
10,647996,-27.0
10,647997,-17.0
10,647998,-7.0
10,647999,2.0
10,648000,10.0
10,648001,20.0
10,648002,30.0
10,648003,38.0
10,648004,46.0
10,648005,53.0
10,648006,62.0
10,648007,71.0
10,648008,75.0
10,648009,70.0
10,648010,52.0
10,648011,25.0
10,648012,-6.0
10,648013,-33.0
10,648014,-51.0
10,648015,-60.0
10,648016,-65.0
10,648017,-68.0
10,648018,-72.0
10,648019,-73.0
10,648020,-72.0
10,648021,-68.0
10,648022,-60.0
10,648023,-46.0
10,648024,-30.0
10,648025,-15.0
10,648026,-10.0
10,648027,-20.0
10,648028,-38.0
10,648029,-50.0
10,648030,-53.0
10,648031,-55.0
10,648032,-55.0
10,648033,-62.0
10,648034,-67.0
10,648035,21.0
10,648036,225.0
10,648037,307.0
10,648038,151.0
10,648039,-25.0
10,648040,-58.0
10,648041,-37.0
10,648042,-27.0
10,648043,-17.0
10,648044,-11.0
10,648045,-7.0
10,648046,-10.0
10,648047,-6.0
10,648048,0.0
10,648049,5.0
10,648050,12.0
10,648051,21.0
10,648052,30.0
10,648053,41.0
10,648054,52.0
10,648055,62.0
10,648056,72.0
10,648057,85.0
10,648058,93.0
10,648059,98.0
10,648060,96.0
10,648061,77.0
10,648062,45.0
10,648063,13.0
10,648064,-12.0
10,648065,-32.0
10,648066,-46.0
10,648067,-51.0
10,648068,-53.0
10,648069,-52.0
10,648070,-52.0
10,648071,-52.0
10,648072,-51.0
10,648073,-45.0
10,648074,-36.0
10,648075,-25.0
10,648076,-15.0
10,648077,-17.0
10,648078,-32.0
10,648079,-50.0
10,648080,-60.0
10,648081,-63.0
10,648082,-65.0
10,648083,-70.0
10,648084,-83.0
10,648085,-56.0
10,648086,100.0
10,648087,262.0
10,648088,201.0
10,648089,8.0
10,648090,-77.0
10,648091,-60.0
10,648092,-42.0
10,648093,-38.0
10,648094,-35.0
10,648095,-32.0
10,648096,-33.0
10,648097,-27.0
10,648098,-18.0
10,648099,-11.0
10,648100,-2.0
10,648101,7.0
10,648102,20.0
10,648103,31.0
10,648104,40.0
10,648105,47.0
10,648106,56.0
10,648107,63.0
10,648108,72.0
10,648109,80.0
10,648110,80.0
10,648111,68.0
10,648112,43.0
10,648113,13.0
10,648114,-15.0
10,648115,-38.0
10,648116,-56.0
10,648117,-66.0
10,648118,-72.0
10,648119,-75.0
10,648120,-76.0
10,648121,-75.0
10,648122,-71.0
10,648123,-65.0
10,648124,-58.0
10,648125,-51.0
10,648126,-36.0
10,648127,-25.0
10,648128,-32.0
10,648129,-52.0
10,648130,-70.0
10,648131,-81.0
10,648132,-83.0
10,648133,-77.0
10,648134,-75.0
10,648135,-85.0
10,648136,-35.0
10,648137,155.0
10,648138,305.0
10,648139,206.0
10,648140,10.0
10,648141,-61.0
10,648142,-46.0
10,648143,-37.0
10,648144,-32.0
10,648145,-25.0
10,648146,-16.0
10,648147,-10.0
10,648148,-3.0
10,648149,0.0
10,648150,7.0
10,648151,15.0
10,648152,25.0
10,648153,37.0
10,648154,51.0
10,648155,65.0
10,648156,80.0
10,648157,92.0
10,648158,108.0
10,648159,120.0
10,648160,125.0
10,648161,123.0
10,648162,108.0
10,648163,82.0
10,648164,52.0
10,648165,20.0
10,648166,-6.0
10,648167,-26.0
10,648168,-40.0
10,648169,-48.0
10,648170,-55.0
10,648171,-56.0
10,648172,-56.0
10,648173,-55.0
10,648174,-48.0
10,648175,-38.0
10,648176,-27.0
10,648177,-16.0
10,648178,-12.0
10,648179,-25.0
10,648180,-41.0
10,648181,-53.0
10,648182,-56.0
10,648183,-55.0
10,648184,-53.0
10,648185,-61.0
10,648186,-66.0
10,648187,41.0
10,648188,233.0
10,648189,288.0
10,648190,110.0
10,648191,-41.0
10,648192,-62.0
10,648193,-40.0
10,648194,-36.0
10,648195,-33.0
10,648196,-31.0
10,648197,-30.0
10,648198,-31.0
10,648199,-26.0
10,648200,-20.0
10,648201,-11.0
10,648202,-3.0
10,648203,6.0
10,648204,20.0
10,648205,33.0
10,648206,45.0
10,648207,53.0
10,648208,62.0
10,648209,71.0
10,648210,77.0
10,648211,76.0
10,648212,62.0
10,648213,37.0
10,648214,8.0
10,648215,-15.0
10,648216,-35.0
10,648217,-50.0
10,648218,-61.0
10,648219,-66.0
10,648220,-70.0
10,648221,-73.0
10,648222,-75.0
10,648223,-75.0
10,648224,-72.0
10,648225,-61.0
10,648226,-50.0
10,648227,-42.0
10,648228,-41.0
10,648229,-47.0
10,648230,-62.0
10,648231,-76.0
10,648232,-80.0
10,648233,-78.0
10,648234,-75.0
10,648235,-78.0
10,648236,-93.0
10,648237,-37.0
10,648238,151.0
10,648239,280.0
10,648240,167.0
10,648241,-20.0
10,648242,-78.0
10,648243,-55.0
10,648244,-42.0
10,648245,-35.0
10,648246,-28.0
10,648247,-22.0
10,648248,-12.0
10,648249,-3.0
10,648250,2.0
10,648251,8.0
10,648252,16.0
10,648253,26.0
10,648254,40.0
10,648255,56.0
10,648256,73.0
10,648257,95.0
10,648258,110.0
10,648259,113.0
10,648260,112.0
10,648261,113.0
10,648262,112.0
10,648263,98.0
10,648264,73.0
10,648265,38.0
10,648266,2.0
10,648267,-25.0
10,648268,-43.0
10,648269,-53.0
10,648270,-60.0
10,648271,-60.0
10,648272,-58.0
10,648273,-57.0
10,648274,-55.0
10,648275,-50.0
10,648276,-43.0
10,648277,-32.0
10,648278,-18.0
10,648279,-13.0
10,648280,-23.0
10,648281,-37.0
10,648282,-47.0
10,648283,-48.0
10,648284,-48.0
10,648285,-52.0
10,648286,-67.0
10,648287,-52.0
10,648288,80.0
10,648289,293.0
10,648290,257.0
10,648291,66.0
10,648292,-70.0
10,648293,-58.0
10,648294,-41.0
10,648295,-37.0
10,648296,-35.0
10,648297,-32.0
10,648298,-27.0
10,648299,-23.0
10,648300,-18.0
10,648301,-8.0
10,648302,-1.0
10,648303,8.0
10,648304,20.0
10,648305,31.0
10,648306,38.0
10,648307,45.0
10,648308,52.0
10,648309,62.0
10,648310,72.0
10,648311,77.0
10,648312,77.0
10,648313,65.0
10,648314,43.0
10,648315,17.0
10,648316,-8.0
10,648317,-31.0
10,648318,-47.0
10,648319,-60.0
10,648320,-68.0
10,648321,-72.0
10,648322,-71.0
10,648323,-70.0
10,648324,-70.0
10,648325,-61.0
10,648326,-47.0
10,648327,-35.0
10,648328,-28.0
10,648329,-27.0
10,648330,-36.0
10,648331,-51.0
10,648332,-63.0
10,648333,-73.0
10,648334,-73.0
10,648335,-73.0
10,648336,-78.0
10,648337,-91.0
10,648338,-25.0
10,648339,172.0
10,648340,300.0
10,648341,177.0
10,648342,-12.0
10,648343,-67.0
10,648344,-45.0
10,648345,-35.0
10,648346,-30.0
10,648347,-25.0
10,648348,-20.0
10,648349,-15.0
10,648350,-10.0
10,648351,-2.0
10,648352,7.0
10,648353,20.0
10,648354,31.0
10,648355,43.0
10,648356,55.0
10,648357,63.0
10,648358,72.0
10,648359,81.0
10,648360,91.0
10,648361,101.0
10,648362,108.0
10,648363,105.0
10,648364,87.0
10,648365,61.0
10,648366,32.0
10,648367,5.0
10,648368,-20.0
10,648369,-40.0
10,648370,-50.0
10,648371,-55.0
10,648372,-58.0
10,648373,-60.0
10,648374,-63.0
10,648375,-65.0
10,648376,-58.0
10,648377,-45.0
10,648378,-30.0
10,648379,-16.0
10,648380,-13.0
10,648381,-26.0
10,648382,-42.0
10,648383,-53.0
10,648384,-56.0
10,648385,-57.0
10,648386,-56.0
10,648387,-68.0
10,648388,-48.0
10,648389,98.0
10,648390,277.0
10,648391,222.0
10,648392,27.0
10,648393,-75.0
10,648394,-61.0
10,648395,-45.0
10,648396,-42.0
10,648397,-42.0
10,648398,-40.0
10,648399,-35.0
10,648400,-30.0
10,648401,-25.0
10,648402,-17.0
10,648403,-7.0
10,648404,5.0
10,648405,15.0
10,648406,26.0
10,648407,33.0
10,648408,42.0
10,648409,55.0
10,648410,68.0
10,648411,77.0
10,648412,83.0
10,648413,83.0
10,648414,72.0
10,648415,51.0
10,648416,23.0
10,648417,-2.0
10,648418,-26.0
10,648419,-43.0
10,648420,-52.0
10,648421,-55.0
10,648422,-57.0
10,648423,-61.0
10,648424,-63.0
10,648425,-60.0
10,648426,-50.0
10,648427,-40.0
10,648428,-27.0
10,648429,-15.0
10,648430,-10.0
10,648431,-23.0
10,648432,-45.0
10,648433,-61.0
10,648434,-67.0
10,648435,-65.0
10,648436,-62.0
10,648437,-71.0
10,648438,-80.0
10,648439,8.0
10,648440,211.0
10,648441,296.0
10,648442,133.0
10,648443,-47.0
10,648444,-86.0
10,648445,-70.0
10,648446,-65.0
10,648447,-61.0
10,648448,-57.0
10,648449,-52.0
10,648450,-43.0
10,648451,-33.0
10,648452,-26.0
10,648453,-22.0
10,648454,-15.0
10,648455,-5.0
10,648456,7.0
10,648457,21.0
10,648458,32.0
10,648459,47.0
10,648460,61.0
10,648461,76.0
10,648462,90.0
10,648463,97.0
10,648464,92.0
10,648465,76.0
10,648466,50.0
10,648467,20.0
10,648468,-6.0
10,648469,-23.0
10,648470,-36.0
10,648471,-43.0
10,648472,-47.0
10,648473,-50.0
10,648474,-50.0
10,648475,-48.0
10,648476,-41.0
10,648477,-30.0
10,648478,-20.0
10,648479,-7.0
10,648480,1.0
10,648481,-1.0
10,648482,-17.0
10,648483,-33.0
10,648484,-45.0
10,648485,-48.0
10,648486,-50.0
10,648487,-53.0
10,648488,-67.0
10,648489,-41.0
10,648490,116.0
10,648491,308.0
10,648492,253.0
10,648493,52.0
10,648494,-63.0
10,648495,-53.0
10,648496,-40.0
10,648497,-33.0
10,648498,-30.0
10,648499,-27.0
10,648500,-26.0
10,648501,-27.0
10,648502,-20.0
10,648503,-12.0
10,648504,-1.0
10,648505,8.0
10,648506,20.0
10,648507,31.0
10,648508,42.0
10,648509,55.0
10,648510,68.0
10,648511,83.0
10,648512,97.0
10,648513,105.0
10,648514,103.0
10,648515,92.0
10,648516,70.0
10,648517,40.0
10,648518,8.0
10,648519,-17.0
10,648520,-38.0
10,648521,-52.0
10,648522,-57.0
10,648523,-61.0
10,648524,-65.0
10,648525,-70.0
10,648526,-67.0
10,648527,-63.0
10,648528,-52.0
10,648529,-37.0
10,648530,-26.0
10,648531,-30.0
10,648532,-47.0
10,648533,-65.0
10,648534,-75.0
10,648535,-77.0
10,648536,-72.0
10,648537,-68.0
10,648538,-81.0
10,648539,-47.0
10,648540,117.0
10,648541,265.0
10,648542,182.0
10,648543,-8.0
10,648544,-82.0
10,648545,-57.0
10,648546,-40.0
10,648547,-33.0
10,648548,-33.0
10,648549,-36.0
10,648550,-37.0
10,648551,-32.0
10,648552,-22.0
10,648553,-8.0
10,648554,2.0
10,648555,8.0
10,648556,16.0
10,648557,27.0
10,648558,36.0
10,648559,46.0
10,648560,55.0
10,648561,67.0
10,648562,77.0
10,648563,81.0
10,648564,76.0
10,648565,58.0
10,648566,33.0
10,648567,8.0
10,648568,-15.0
10,648569,-37.0
10,648570,-53.0
10,648571,-63.0
10,648572,-67.0
10,648573,-66.0
10,648574,-63.0
10,648575,-63.0
10,648576,-60.0
10,648577,-53.0
10,648578,-40.0
10,648579,-22.0
10,648580,-8.0
10,648581,-6.0
10,648582,-20.0
10,648583,-35.0
10,648584,-45.0
10,648585,-48.0
10,648586,-47.0
10,648587,-46.0
10,648588,-53.0
10,648589,-61.0
10,648590,51.0
10,648591,251.0
10,648592,310.0
10,648593,128.0
10,648594,-26.0
10,648595,-48.0
10,648596,-31.0
10,648597,-30.0
10,648598,-28.0
10,648599,-21.0
10,648600,-15.0
10,648601,-11.0
10,648602,-8.0
10,648603,-3.0
10,648604,1.0
10,648605,6.0
10,648606,10.0
10,648607,18.0
10,648608,31.0
10,648609,45.0
10,648610,53.0
10,648611,61.0
10,648612,72.0
10,648613,82.0
10,648614,87.0
10,648615,78.0
10,648616,57.0
10,648617,30.0
10,648618,6.0
10,648619,-16.0
10,648620,-40.0
10,648621,-56.0
10,648622,-63.0
10,648623,-65.0
10,648624,-61.0
10,648625,-58.0
10,648626,-57.0
10,648627,-55.0
10,648628,-45.0
10,648629,-31.0
10,648630,-16.0
10,648631,-10.0
10,648632,-22.0
10,648633,-42.0
10,648634,-55.0
10,648635,-60.0
10,648636,-62.0
10,648637,-61.0
10,648638,-68.0
10,648639,-76.0
10,648640,27.0
10,648641,208.0
10,648642,256.0
10,648643,71.0
10,648644,-67.0
10,648645,-80.0
10,648646,-46.0
10,648647,-38.0
10,648648,-36.0
10,648649,-32.0
10,648650,-27.0
10,648651,-21.0
10,648652,-15.0
10,648653,-7.0
10,648654,0.0
10,648655,8.0
10,648656,17.0
10,648657,28.0
10,648658,37.0
10,648659,43.0
10,648660,50.0
10,648661,56.0
10,648662,67.0
10,648663,76.0
10,648664,81.0
10,648665,72.0
10,648666,53.0
10,648667,28.0
10,648668,7.0
10,648669,-13.0
10,648670,-32.0
10,648671,-47.0
10,648672,-56.0
10,648673,-58.0
10,648674,-60.0
10,648675,-61.0
10,648676,-62.0
10,648677,-57.0
10,648678,-45.0
10,648679,-27.0
10,648680,-10.0
10,648681,-3.0
10,648682,-15.0
10,648683,-38.0
10,648684,-60.0
10,648685,-70.0
10,648686,-71.0
10,648687,-67.0
10,648688,-72.0
10,648689,-83.0
10,648690,-18.0
10,648691,176.0
10,648692,298.0
10,648693,175.0
10,648694,-17.0
10,648695,-75.0
10,648696,-56.0
10,648697,-46.0
10,648698,-42.0
10,648699,-38.0
10,648700,-33.0
10,648701,-28.0
10,648702,-21.0
10,648703,-12.0
10,648704,-1.0
10,648705,8.0
10,648706,21.0
10,648707,32.0
10,648708,43.0
10,648709,53.0
10,648710,61.0
10,648711,73.0
10,648712,87.0
10,648713,98.0
10,648714,103.0
10,648715,98.0
10,648716,85.0
10,648717,56.0
10,648718,25.0
10,648719,-1.0
10,648720,-23.0
10,648721,-40.0
10,648722,-47.0
10,648723,-55.0
10,648724,-58.0
10,648725,-63.0
10,648726,-63.0
10,648727,-58.0
10,648728,-51.0
10,648729,-38.0
10,648730,-25.0
10,648731,-13.0
10,648732,-16.0
10,648733,-32.0
10,648734,-48.0
10,648735,-55.0
10,648736,-58.0
10,648737,-58.0
10,648738,-61.0
10,648739,-71.0
10,648740,-32.0
10,648741,135.0
10,648742,282.0
10,648743,202.0
10,648744,12.0
10,648745,-65.0
10,648746,-50.0
10,648747,-40.0
10,648748,-41.0
10,648749,-36.0
10,648750,-33.0
10,648751,-32.0
10,648752,-31.0
10,648753,-23.0
10,648754,-15.0
10,648755,-6.0
10,648756,2.0
10,648757,13.0
10,648758,26.0
10,648759,42.0
10,648760,56.0
10,648761,66.0
10,648762,75.0
10,648763,86.0
10,648764,95.0
10,648765,90.0
10,648766,71.0
10,648767,47.0
10,648768,22.0
10,648769,0.0
10,648770,-22.0
10,648771,-43.0
10,648772,-52.0
10,648773,-55.0
10,648774,-53.0
10,648775,-56.0
10,648776,-58.0
10,648777,-55.0
10,648778,-47.0
10,648779,-37.0
10,648780,-23.0
10,648781,-13.0
10,648782,-18.0
10,648783,-37.0
10,648784,-56.0
10,648785,-66.0
10,648786,-67.0
10,648787,-66.0
10,648788,-71.0
10,648789,-86.0
10,648790,-50.0
10,648791,118.0
10,648792,282.0
10,648793,218.0
10,648794,22.0
10,648795,-68.0
10,648796,-57.0
10,648797,-48.0
10,648798,-50.0
10,648799,-47.0
10,648800,-45.0
10,648801,-41.0
10,648802,-36.0
10,648803,-27.0
10,648804,-20.0
10,648805,-10.0
10,648806,-1.0
10,648807,8.0
10,648808,18.0
10,648809,31.0
10,648810,43.0
10,648811,57.0
10,648812,71.0
10,648813,85.0
10,648814,98.0
10,648815,96.0
10,648816,78.0
10,648817,50.0
10,648818,21.0
10,648819,-5.0
10,648820,-26.0
10,648821,-38.0
10,648822,-46.0
10,648823,-51.0
10,648824,-55.0
10,648825,-56.0
10,648826,-56.0
10,648827,-53.0
10,648828,-48.0
10,648829,-40.0
10,648830,-26.0
10,648831,-11.0
10,648832,-7.0
10,648833,-18.0
10,648834,-37.0
10,648835,-48.0
10,648836,-53.0
10,648837,-55.0
10,648838,-53.0
10,648839,-60.0
10,648840,-70.0
10,648841,12.0
10,648842,212.0
10,648843,306.0
10,648844,157.0
10,648845,-21.0
10,648846,-62.0
10,648847,-42.0
10,648848,-33.0
10,648849,-28.0
10,648850,-27.0
10,648851,-25.0
10,648852,-22.0
10,648853,-18.0
10,648854,-10.0
10,648855,-1.0
10,648856,5.0
10,648857,13.0
10,648858,25.0
10,648859,37.0
10,648860,47.0
10,648861,60.0
10,648862,71.0
10,648863,80.0
10,648864,88.0
10,648865,96.0
10,648866,93.0
10,648867,75.0
10,648868,46.0
10,648869,15.0
10,648870,-12.0
10,648871,-31.0
10,648872,-47.0
10,648873,-55.0
10,648874,-60.0
10,648875,-61.0
10,648876,-60.0
10,648877,-61.0
10,648878,-57.0
10,648879,-48.0
10,648880,-35.0
10,648881,-20.0
10,648882,-12.0
10,648883,-18.0
10,648884,-32.0
10,648885,-46.0
10,648886,-55.0
10,648887,-57.0
10,648888,-56.0
10,648889,-60.0
10,648890,-72.0
10,648891,-16.0
10,648892,162.0
10,648893,280.0
10,648894,161.0
10,648895,-23.0
10,648896,-80.0
10,648897,-60.0
10,648898,-52.0
10,648899,-50.0
10,648900,-40.0
10,648901,-31.0
10,648902,-28.0
10,648903,-27.0
10,648904,-20.0
10,648905,-6.0
10,648906,6.0
10,648907,15.0
10,648908,25.0
10,648909,32.0
10,648910,41.0
10,648911,50.0
10,648912,57.0
10,648913,66.0
10,648914,76.0
10,648915,82.0
10,648916,76.0
10,648917,56.0
10,648918,25.0
10,648919,-5.0
10,648920,-33.0
10,648921,-50.0
10,648922,-57.0
10,648923,-60.0
10,648924,-63.0
10,648925,-65.0
10,648926,-63.0
10,648927,-58.0
10,648928,-55.0
10,648929,-47.0
10,648930,-38.0
10,648931,-28.0
10,648932,-18.0
10,648933,-21.0
10,648934,-36.0
10,648935,-55.0
10,648936,-66.0
10,648937,-66.0
10,648938,-66.0
10,648939,-65.0
10,648940,-80.0
10,648941,-63.0
10,648942,76.0
10,648943,297.0
10,648944,256.0
10,648945,56.0
10,648946,-76.0
10,648947,-65.0
10,648948,-46.0
10,648949,-42.0
10,648950,-38.0
10,648951,-35.0
10,648952,-31.0
10,648953,-23.0
10,648954,-17.0
10,648955,-7.0
10,648956,1.0
10,648957,7.0
10,648958,18.0
10,648959,35.0
10,648960,47.0
10,648961,61.0
10,648962,73.0
10,648963,86.0
10,648964,98.0
10,648965,107.0
10,648966,110.0
10,648967,97.0
10,648968,73.0
10,648969,43.0
10,648970,16.0
10,648971,-7.0
10,648972,-27.0
10,648973,-42.0
10,648974,-48.0
10,648975,-48.0
10,648976,-48.0
10,648977,-50.0
10,648978,-52.0
10,648979,-53.0
10,648980,-42.0
10,648981,-27.0
10,648982,-12.0
10,648983,-8.0
10,648984,-15.0
10,648985,-33.0
10,648986,-51.0
10,648987,-60.0
10,648988,-62.0
10,648989,-63.0
10,648990,-68.0
10,648991,-77.0
10,648992,-11.0
10,648993,178.0
10,648994,291.0
10,648995,162.0
10,648996,-22.0
10,648997,-73.0
10,648998,-52.0
10,648999,-41.0
10,649000,-35.0
10,649001,-32.0
10,649002,-30.0
10,649003,-26.0
10,649004,-21.0
10,649005,-16.0
10,649006,-11.0
10,649007,-2.0
10,649008,5.0
10,649009,16.0
10,649010,30.0
10,649011,42.0
10,649012,55.0
10,649013,67.0
10,649014,78.0
10,649015,88.0
10,649016,92.0
10,649017,88.0
10,649018,71.0
10,649019,43.0
10,649020,15.0
10,649021,-11.0
10,649022,-32.0
10,649023,-46.0
10,649024,-55.0
10,649025,-58.0
10,649026,-61.0
10,649027,-60.0
10,649028,-60.0
10,649029,-58.0
10,649030,-52.0
10,649031,-43.0
10,649032,-30.0
10,649033,-17.0
10,649034,-13.0
10,649035,-28.0
10,649036,-48.0
10,649037,-60.0
10,649038,-63.0
10,649039,-63.0
10,649040,-62.0
10,649041,-78.0
10,649042,-66.0
10,649043,70.0
10,649044,293.0
10,649045,256.0
10,649046,63.0
10,649047,-70.0
10,649048,-58.0
10,649049,-42.0
10,649050,-38.0
10,649051,-35.0
10,649052,-32.0
10,649053,-28.0
10,649054,-25.0
10,649055,-18.0
10,649056,-11.0
10,649057,-2.0
10,649058,6.0
10,649059,15.0
10,649060,26.0
10,649061,37.0
10,649062,47.0
10,649063,57.0
10,649064,67.0
10,649065,76.0
10,649066,86.0
10,649067,90.0
10,649068,81.0
10,649069,61.0
10,649070,32.0
10,649071,5.0
10,649072,-20.0
10,649073,-36.0
10,649074,-48.0
10,649075,-52.0
10,649076,-55.0
10,649077,-57.0
10,649078,-60.0
10,649079,-57.0
10,649080,-53.0
10,649081,-45.0
10,649082,-33.0
10,649083,-20.0
10,649084,-12.0
10,649085,-18.0
10,649086,-37.0
10,649087,-53.0
10,649088,-61.0
10,649089,-62.0
10,649090,-62.0
10,649091,-66.0
10,649092,-76.0
10,649093,-8.0
10,649094,177.0
10,649095,285.0
10,649096,155.0
10,649097,-25.0
10,649098,-72.0
10,649099,-52.0
10,649100,-41.0
10,649101,-36.0
10,649102,-32.0
10,649103,-30.0
10,649104,-27.0
10,649105,-22.0
10,649106,-16.0
10,649107,-7.0
10,649108,1.0
10,649109,8.0
10,649110,18.0
10,649111,31.0
10,649112,41.0
10,649113,51.0
10,649114,61.0
10,649115,72.0
10,649116,82.0
10,649117,87.0
10,649118,83.0
10,649119,70.0
10,649120,46.0
10,649121,17.0
10,649122,-10.0
10,649123,-31.0
10,649124,-45.0
10,649125,-52.0
10,649126,-56.0
10,649127,-58.0
10,649128,-58.0
10,649129,-58.0
10,649130,-56.0
10,649131,-50.0
10,649132,-40.0
10,649133,-27.0
10,649134,-15.0
10,649135,-11.0
10,649136,-26.0
10,649137,-43.0
10,649138,-56.0
10,649139,-61.0
10,649140,-62.0
10,649141,-61.0
10,649142,-76.0
10,649143,-65.0
10,649144,61.0
10,649145,245.0
10,649146,277.0
10,649147,60.0
10,649148,-72.0
10,649149,-62.0
10,649150,-43.0
10,649151,-37.0
10,649152,-33.0
10,649153,-31.0
10,649154,-28.0
10,649155,-26.0
10,649156,-21.0
10,649157,-13.0
10,649158,-6.0
10,649159,1.0
10,649160,12.0
10,649161,23.0
10,649162,35.0
10,649163,45.0
10,649164,56.0
10,649165,68.0
10,649166,78.0
10,649167,85.0
10,649168,86.0
10,649169,77.0
10,649170,57.0
10,649171,30.0
10,649172,3.0
10,649173,-16.0
10,649174,-32.0
10,649175,-43.0
10,649176,-48.0
10,649177,-50.0
10,649178,-48.0
10,649179,-48.0
10,649180,-47.0
10,649181,-43.0
10,649182,-36.0
10,649183,-25.0
10,649184,-12.0
10,649185,-2.0
10,649186,-6.0
10,649187,-23.0
10,649188,-42.0
10,649189,-51.0
10,649190,-53.0
10,649191,-53.0
10,649192,-58.0
10,649193,-71.0
10,649194,-37.0
10,649195,130.0
10,649196,288.0
10,649197,217.0
10,649198,18.0
10,649199,-70.0
10,649200,-55.0
10,649201,-42.0
10,649202,-38.0
10,649203,-36.0
10,649204,-32.0
10,649205,-28.0
10,649206,-21.0
10,649207,-13.0
10,649208,-5.0
10,649209,1.0
10,649210,10.0
10,649211,21.0
10,649212,32.0
10,649213,43.0
10,649214,55.0
10,649215,63.0
10,649216,72.0
10,649217,82.0
10,649218,90.0
10,649219,87.0
10,649220,72.0
10,649221,48.0
10,649222,20.0
10,649223,-3.0
10,649224,-23.0
10,649225,-38.0
10,649226,-48.0
10,649227,-55.0
10,649228,-57.0
10,649229,-58.0
10,649230,-57.0
10,649231,-58.0
10,649232,-57.0
10,649233,-50.0
10,649234,-38.0
10,649235,-25.0
10,649236,-15.0
10,649237,-17.0
10,649238,-33.0
10,649239,-52.0
10,649240,-61.0
10,649241,-63.0
10,649242,-62.0
10,649243,-63.0
10,649244,-78.0
10,649245,-58.0
10,649246,91.0
10,649247,292.0
10,649248,245.0
10,649249,47.0
10,649250,-72.0
10,649251,-63.0
10,649252,-48.0
10,649253,-45.0
10,649254,-41.0
10,649255,-36.0
10,649256,-31.0
10,649257,-26.0
10,649258,-22.0
10,649259,-16.0
10,649260,-8.0
10,649261,-1.0
10,649262,8.0
10,649263,20.0
10,649264,32.0
10,649265,45.0
10,649266,53.0
10,649267,66.0
10,649268,78.0
10,649269,87.0
10,649270,88.0
10,649271,76.0
10,649272,56.0
10,649273,28.0
10,649274,2.0
10,649275,-20.0
10,649276,-38.0
10,649277,-50.0
10,649278,-53.0
10,649279,-55.0
10,649280,-57.0
10,649281,-57.0
10,649282,-57.0
10,649283,-55.0
10,649284,-48.0
10,649285,-38.0
10,649286,-25.0
10,649287,-12.0
10,649288,-8.0
10,649289,-20.0
10,649290,-37.0
10,649291,-50.0
10,649292,-55.0
10,649293,-55.0
10,649294,-56.0
10,649295,-70.0
10,649296,-61.0
10,649297,61.0
10,649298,251.0
10,649299,291.0
10,649300,81.0
10,649301,-51.0
10,649302,-63.0
10,649303,-35.0
10,649304,-30.0
10,649305,-26.0
10,649306,-21.0
10,649307,-17.0
10,649308,-13.0
10,649309,-10.0
10,649310,-5.0
10,649311,0.0
10,649312,7.0
10,649313,15.0
10,649314,27.0
10,649315,42.0
10,649316,52.0
10,649317,63.0
10,649318,75.0
10,649319,83.0
10,649320,91.0
10,649321,95.0
10,649322,87.0
10,649323,67.0
10,649324,40.0
10,649325,11.0
10,649326,-12.0
10,649327,-31.0
10,649328,-45.0
10,649329,-52.0
10,649330,-56.0
10,649331,-57.0
10,649332,-58.0
10,649333,-60.0
10,649334,-61.0
10,649335,-57.0
10,649336,-46.0
10,649337,-31.0
10,649338,-17.0
10,649339,-10.0
10,649340,-16.0
10,649341,-36.0
10,649342,-52.0
10,649343,-61.0
10,649344,-61.0
10,649345,-60.0
10,649346,-63.0
10,649347,-72.0
10,649348,-6.0
10,649349,175.0
10,649350,275.0
10,649351,146.0
10,649352,-26.0
10,649353,-68.0
10,649354,-46.0
10,649355,-38.0
10,649356,-36.0
10,649357,-30.0
10,649358,-25.0
10,649359,-20.0
10,649360,-16.0
10,649361,-10.0
10,649362,-5.0
10,649363,2.0
10,649364,12.0
10,649365,23.0
10,649366,35.0
10,649367,46.0
10,649368,57.0
10,649369,66.0
10,649370,76.0
10,649371,83.0
10,649372,88.0
10,649373,85.0
10,649374,67.0
10,649375,41.0
10,649376,12.0
10,649377,-12.0
10,649378,-32.0
10,649379,-46.0
10,649380,-53.0
10,649381,-58.0
10,649382,-60.0
10,649383,-60.0
10,649384,-60.0
10,649385,-60.0
10,649386,-56.0
10,649387,-46.0
10,649388,-32.0
10,649389,-17.0
10,649390,-7.0
10,649391,-12.0
10,649392,-27.0
10,649393,-46.0
10,649394,-57.0
10,649395,-60.0
10,649396,-57.0
10,649397,-60.0
10,649398,-73.0
10,649399,-32.0
10,649400,147.0
10,649401,300.0
10,649402,210.0
10,649403,7.0
10,649404,-70.0
10,649405,-48.0
10,649406,-35.0
10,649407,-31.0
10,649408,-30.0
10,649409,-26.0
10,649410,-21.0
10,649411,-15.0
10,649412,-10.0
10,649413,-2.0
10,649414,5.0
10,649415,16.0
10,649416,26.0
10,649417,36.0
10,649418,46.0
10,649419,57.0
10,649420,70.0
10,649421,81.0
10,649422,90.0
10,649423,92.0
10,649424,88.0
10,649425,75.0
10,649426,46.0
10,649427,16.0
10,649428,-12.0
10,649429,-36.0
10,649430,-56.0
10,649431,-67.0
10,649432,-72.0
10,649433,-72.0
10,649434,-68.0
10,649435,-66.0
10,649436,-67.0
10,649437,-70.0
10,649438,-66.0
10,649439,-56.0
10,649440,-41.0
10,649441,-26.0
10,649442,-17.0
10,649443,-22.0
10,649444,-38.0
10,649445,-53.0
10,649446,-61.0
10,649447,-62.0
10,649448,-60.0
10,649449,-63.0
10,649450,-71.0
10,649451,5.0
10,649452,206.0
10,649453,316.0
10,649454,178.0
10,649455,-10.0
10,649456,-57.0
10,649457,-36.0
10,649458,-26.0
10,649459,-22.0
10,649460,-18.0
10,649461,-15.0
10,649462,-8.0
10,649463,-2.0
10,649464,2.0
10,649465,8.0
10,649466,17.0
10,649467,27.0
10,649468,38.0
10,649469,47.0
10,649470,56.0
10,649471,67.0
10,649472,81.0
10,649473,92.0
10,649474,101.0
10,649475,107.0
10,649476,105.0
10,649477,91.0
10,649478,63.0
10,649479,31.0
10,649480,2.0
10,649481,-17.0
10,649482,-31.0
10,649483,-40.0
10,649484,-47.0
10,649485,-52.0
10,649486,-57.0
10,649487,-58.0
10,649488,-60.0
10,649489,-58.0
10,649490,-50.0
10,649491,-37.0
10,649492,-23.0
10,649493,-11.0
10,649494,-6.0
10,649495,-16.0
10,649496,-33.0
10,649497,-47.0
10,649498,-50.0
10,649499,-51.0
10,649500,-53.0
10,649501,-67.0
10,649502,-76.0
10,649503,22.0
10,649504,207.0
10,649505,261.0
10,649506,85.0
10,649507,-61.0
10,649508,-78.0
10,649509,-48.0
10,649510,-42.0
10,649511,-40.0
10,649512,-37.0
10,649513,-31.0
10,649514,-23.0
10,649515,-16.0
10,649516,-11.0
10,649517,-6.0
10,649518,2.0
10,649519,11.0
10,649520,23.0
10,649521,36.0
10,649522,47.0
10,649523,55.0
10,649524,65.0
10,649525,73.0
10,649526,81.0
10,649527,83.0
10,649528,72.0
10,649529,51.0
10,649530,22.0
10,649531,-1.0
10,649532,-20.0
10,649533,-36.0
10,649534,-48.0
10,649535,-58.0
10,649536,-60.0
10,649537,-58.0
10,649538,-60.0
10,649539,-60.0
10,649540,-61.0
10,649541,-58.0
10,649542,-51.0
10,649543,-38.0
10,649544,-26.0
10,649545,-17.0
10,649546,-15.0
10,649547,-27.0
10,649548,-47.0
10,649549,-62.0
10,649550,-70.0
10,649551,-72.0
10,649552,-71.0
10,649553,-80.0
10,649554,-72.0
10,649555,42.0
10,649556,245.0
10,649557,300.0
10,649558,106.0
10,649559,-47.0
10,649560,-66.0
10,649561,-41.0
10,649562,-36.0
10,649563,-33.0
10,649564,-26.0
10,649565,-17.0
10,649566,-8.0
10,649567,-3.0
10,649568,1.0
10,649569,8.0
10,649570,16.0
10,649571,22.0
10,649572,32.0
10,649573,46.0
10,649574,61.0
10,649575,75.0
10,649576,87.0
10,649577,100.0
10,649578,110.0
10,649579,112.0
10,649580,103.0
10,649581,82.0
10,649582,52.0
10,649583,22.0
10,649584,-3.0
10,649585,-23.0
10,649586,-38.0
10,649587,-46.0
10,649588,-52.0
10,649589,-57.0
10,649590,-61.0
10,649591,-65.0
10,649592,-65.0
10,649593,-63.0
10,649594,-57.0
10,649595,-46.0
10,649596,-32.0
10,649597,-20.0
10,649598,-17.0
10,649599,-33.0
10,649600,-53.0
10,649601,-65.0
10,649602,-63.0
10,649603,-60.0
10,649604,-58.0
10,649605,-77.0
10,649606,-66.0
10,649607,62.0
10,649608,248.0
10,649609,283.0
10,649610,66.0
10,649611,-62.0
10,649612,-71.0
10,649613,-43.0
10,649614,-38.0
10,649615,-35.0
10,649616,-31.0
10,649617,-23.0
10,649618,-15.0
10,649619,-7.0
10,649620,-1.0
10,649621,5.0
10,649622,11.0
10,649623,18.0
10,649624,28.0
10,649625,37.0
10,649626,50.0
10,649627,62.0
10,649628,76.0
10,649629,86.0
10,649630,91.0
10,649631,87.0
10,649632,72.0
10,649633,48.0
10,649634,20.0
10,649635,-5.0
10,649636,-25.0
10,649637,-45.0
10,649638,-56.0
10,649639,-60.0
10,649640,-61.0
10,649641,-62.0
10,649642,-65.0
10,649643,-67.0
10,649644,-67.0
10,649645,-63.0
10,649646,-55.0
10,649647,-43.0
10,649648,-27.0
10,649649,-12.0
10,649650,-16.0
10,649651,-33.0
10,649652,-55.0
10,649653,-67.0
10,649654,-71.0
10,649655,-68.0
10,649656,-63.0
10,649657,-76.0
10,649658,-60.0
10,649659,81.0
10,649660,305.0
10,649661,265.0
10,649662,67.0
10,649663,-67.0
10,649664,-56.0
10,649665,-37.0
10,649666,-31.0
10,649667,-28.0
10,649668,-22.0
10,649669,-17.0
10,649670,-11.0
10,649671,-5.0
10,649672,0.0
10,649673,8.0
10,649674,17.0
10,649675,28.0
10,649676,43.0
10,649677,58.0
10,649678,71.0
10,649679,77.0
10,649680,87.0
10,649681,98.0
10,649682,107.0
10,649683,108.0
10,649684,98.0
10,649685,75.0
10,649686,42.0
10,649687,13.0
10,649688,-8.0
10,649689,-27.0
10,649690,-42.0
10,649691,-50.0
10,649692,-58.0
10,649693,-65.0
10,649694,-65.0
10,649695,-65.0
10,649696,-65.0
10,649697,-63.0
10,649698,-57.0
10,649699,-46.0
10,649700,-31.0
10,649701,-17.0
10,649702,-15.0
10,649703,-25.0
10,649704,-45.0
10,649705,-57.0
10,649706,-61.0
10,649707,-58.0
10,649708,-56.0
10,649709,-70.0
10,649710,-46.0
10,649711,102.0
10,649712,272.0
10,649713,216.0
10,649714,23.0
10,649715,-72.0
10,649716,-58.0
10,649717,-40.0
10,649718,-35.0
10,649719,-31.0
10,649720,-27.0
10,649721,-21.0
10,649722,-15.0
10,649723,-8.0
10,649724,-5.0
10,649725,1.0
10,649726,13.0
10,649727,26.0
10,649728,36.0
10,649729,48.0
10,649730,60.0
10,649731,68.0
10,649732,78.0
10,649733,87.0
10,649734,93.0
10,649735,91.0
10,649736,77.0
10,649737,53.0
10,649738,26.0
10,649739,1.0
10,649740,-17.0
10,649741,-33.0
10,649742,-46.0
10,649743,-55.0
10,649744,-56.0
10,649745,-56.0
10,649746,-56.0
10,649747,-56.0
10,649748,-55.0
10,649749,-52.0
10,649750,-43.0
10,649751,-31.0
10,649752,-16.0
10,649753,-7.0
10,649754,-11.0
10,649755,-31.0
10,649756,-53.0
10,649757,-66.0
10,649758,-67.0
10,649759,-62.0
10,649760,-66.0
10,649761,-82.0
10,649762,-52.0
10,649763,120.0
10,649764,308.0
10,649765,246.0
10,649766,36.0
10,649767,-73.0
10,649768,-66.0
10,649769,-60.0
10,649770,-60.0
10,649771,-56.0
10,649772,-51.0
10,649773,-45.0
10,649774,-41.0
10,649775,-37.0
10,649776,-32.0
10,649777,-26.0
10,649778,-13.0
10,649779,0.0
10,649780,15.0
10,649781,32.0
10,649782,50.0
10,649783,67.0
10,649784,81.0
10,649785,92.0
10,649786,98.0
10,649787,100.0
10,649788,92.0
10,649789,72.0
10,649790,43.0
10,649791,11.0
10,649792,-11.0
10,649793,-26.0
10,649794,-32.0
10,649795,-37.0
10,649796,-38.0
10,649797,-41.0
10,649798,-43.0
10,649799,-45.0
10,649800,-42.0
10,649801,-37.0
10,649802,-31.0
10,649803,-22.0
10,649804,-8.0
10,649805,1.0
10,649806,-1.0
10,649807,-15.0
10,649808,-33.0
10,649809,-42.0
10,649810,-45.0
10,649811,-43.0
10,649812,-42.0
10,649813,-55.0
10,649814,-25.0
10,649815,142.0
10,649816,310.0
10,649817,245.0
10,649818,41.0
10,649819,-55.0
10,649820,-45.0
10,649821,-33.0
10,649822,-31.0
10,649823,-28.0
10,649824,-25.0
10,649825,-21.0
10,649826,-18.0
10,649827,-15.0
10,649828,-11.0
10,649829,-5.0
10,649830,1.0
10,649831,11.0
10,649832,23.0
10,649833,36.0
10,649834,47.0
10,649835,58.0
10,649836,73.0
10,649837,88.0
10,649838,100.0
10,649839,101.0
10,649840,83.0
10,649841,60.0
10,649842,31.0
10,649843,3.0
10,649844,-20.0
10,649845,-38.0
10,649846,-51.0
10,649847,-58.0
10,649848,-65.0
10,649849,-67.0
10,649850,-70.0
10,649851,-71.0
10,649852,-67.0
10,649853,-60.0
10,649854,-48.0
10,649855,-32.0
10,649856,-18.0
10,649857,-16.0
10,649858,-30.0
10,649859,-50.0
10,649860,-62.0
10,649861,-67.0
10,649862,-63.0
10,649863,-61.0
10,649864,-80.0
10,649865,-72.0
10,649866,41.0
10,649867,221.0
10,649868,260.0
10,649869,57.0
10,649870,-77.0
10,649871,-66.0
10,649872,-46.0
10,649873,-42.0
10,649874,-42.0
10,649875,-38.0
10,649876,-30.0
10,649877,-23.0
10,649878,-17.0
10,649879,-16.0
10,649880,-12.0
10,649881,-5.0
10,649882,6.0
10,649883,20.0
10,649884,32.0
10,649885,43.0
10,649886,48.0
10,649887,55.0
10,649888,61.0
10,649889,66.0
10,649890,67.0
10,649891,60.0
10,649892,42.0
10,649893,16.0
10,649894,-10.0
10,649895,-33.0
10,649896,-48.0
10,649897,-60.0
10,649898,-66.0
10,649899,-68.0
10,649900,-70.0
10,649901,-66.0
10,649902,-63.0
10,649903,-61.0
10,649904,-58.0
10,649905,-50.0
10,649906,-38.0
10,649907,-22.0
10,649908,-8.0
10,649909,-6.0
10,649910,-17.0
10,649911,-32.0
10,649912,-45.0
10,649913,-47.0
10,649914,-48.0
10,649915,-47.0
10,649916,-63.0
10,649917,-50.0
10,649918,83.0
10,649919,280.0
10,649920,317.0
10,649921,95.0
10,649922,-40.0
10,649923,-51.0
10,649924,-22.0
10,649925,-15.0
10,649926,-10.0
10,649927,-6.0
10,649928,-2.0
10,649929,-1.0
10,649930,0.0
10,649931,3.0
10,649932,11.0
10,649933,20.0
10,649934,31.0
10,649935,41.0
10,649936,52.0
10,649937,63.0
10,649938,72.0
10,649939,83.0
10,649940,92.0
10,649941,98.0
10,649942,101.0
10,649943,93.0
10,649944,72.0
10,649945,42.0
10,649946,12.0
10,649947,-10.0
10,649948,-27.0
10,649949,-41.0
10,649950,-51.0
10,649951,-58.0
10,649952,-61.0
10,649953,-58.0
10,649954,-57.0
10,649955,-57.0
10,649956,-52.0
10,649957,-43.0
10,649958,-30.0
10,649959,-15.0
10,649960,-6.0
10,649961,-12.0
10,649962,-32.0
10,649963,-50.0
10,649964,-58.0
10,649965,-60.0
10,649966,-60.0
10,649967,-65.0
10,649968,-77.0
10,649969,-17.0
10,649970,158.0
10,649971,261.0
10,649972,135.0
10,649973,-38.0
10,649974,-77.0
10,649975,-48.0
10,649976,-38.0
10,649977,-36.0
10,649978,-32.0
10,649979,-26.0
10,649980,-18.0
10,649981,-12.0
10,649982,-7.0
10,649983,-1.0
10,649984,5.0
10,649985,12.0
10,649986,21.0
10,649987,30.0
10,649988,38.0
10,649989,47.0
10,649990,60.0
10,649991,68.0
10,649992,73.0
10,649993,77.0
10,649994,71.0
10,649995,55.0
10,649996,31.0
10,649997,6.0
10,649998,-16.0
10,649999,-36.0
10,650000,-51.0
10,650001,-62.0
10,650002,-67.0
10,650003,-71.0
10,650004,-73.0
10,650005,-73.0
10,650006,-71.0
10,650007,-68.0
10,650008,-65.0
10,650009,-56.0
10,650010,-40.0
10,650011,-21.0
10,650012,-15.0
10,650013,-28.0
10,650014,-48.0
10,650015,-62.0
10,650016,-67.0
10,650017,-68.0
10,650018,-67.0
10,650019,-76.0
10,650020,-82.0
10,650021,20.0
10,650022,225.0
10,650023,296.0
10,650024,130.0
10,650025,-38.0
10,650026,-66.0
10,650027,-45.0
10,650028,-36.0
10,650029,-31.0
10,650030,-28.0
10,650031,-26.0
10,650032,-18.0
10,650033,-8.0
10,650034,-1.0
10,650035,6.0
10,650036,16.0
10,650037,27.0
10,650038,40.0
10,650039,50.0
10,650040,60.0
10,650041,70.0
10,650042,81.0
10,650043,93.0
10,650044,103.0
10,650045,108.0
10,650046,102.0
10,650047,86.0
10,650048,62.0
10,650049,33.0
10,650050,5.0
10,650051,-16.0
10,650052,-30.0
10,650053,-41.0
10,650054,-48.0
10,650055,-55.0
10,650056,-57.0
10,650057,-58.0
10,650058,-55.0
10,650059,-52.0
10,650060,-47.0
10,650061,-37.0
10,650062,-21.0
10,650063,-7.0
10,650064,-3.0
10,650065,-22.0
10,650066,-42.0
10,650067,-51.0
10,650068,-53.0
10,650069,-55.0
10,650070,-60.0
10,650071,-73.0
10,650072,-45.0
10,650073,111.0
10,650074,268.0
10,650075,207.0
10,650076,15.0
10,650077,-75.0
10,650078,-60.0
10,650079,-43.0
10,650080,-41.0
10,650081,-38.0
10,650082,-33.0
10,650083,-27.0
10,650084,-20.0
10,650085,-12.0
10,650086,-2.0
10,650087,6.0
10,650088,13.0
10,650089,21.0
10,650090,30.0
10,650091,38.0
10,650092,50.0
10,650093,57.0
10,650094,62.0
10,650095,70.0
10,650096,76.0
10,650097,77.0
10,650098,66.0
10,650099,45.0
10,650100,17.0
10,650101,-8.0
10,650102,-32.0
10,650103,-47.0
10,650104,-52.0
10,650105,-53.0
10,650106,-55.0
10,650107,-55.0
10,650108,-57.0
10,650109,-62.0
10,650110,-63.0
10,650111,-56.0
10,650112,-46.0
10,650113,-40.0
10,650114,-28.0
10,650115,-20.0
10,650116,-23.0
10,650117,-41.0
10,650118,-60.0
10,650119,-73.0
10,650120,-78.0
10,650121,-78.0
10,650122,-83.0
10,650123,-88.0
10,650124,-6.0
10,650125,196.0
10,650126,290.0
10,650127,140.0
10,650128,-42.0
10,650129,-85.0
10,650130,-71.0
10,650131,-68.0
10,650132,-66.0
10,650133,-60.0
10,650134,-52.0
10,650135,-47.0
10,650136,-42.0
10,650137,-35.0
10,650138,-22.0
10,650139,-10.0
10,650140,-2.0
10,650141,10.0
10,650142,25.0
10,650143,40.0
10,650144,53.0
10,650145,68.0
10,650146,85.0
10,650147,97.0
10,650148,103.0
10,650149,100.0
10,650150,90.0
10,650151,73.0
10,650152,50.0
10,650153,23.0
10,650154,0.0
10,650155,-13.0
10,650156,-21.0
10,650157,-26.0
10,650158,-31.0
10,650159,-32.0
10,650160,-31.0
10,650161,-30.0
10,650162,-26.0
10,650163,-18.0
10,650164,-8.0
10,650165,6.0
10,650166,17.0
10,650167,13.0
10,650168,-2.0
10,650169,-18.0
10,650170,-27.0
10,650171,-32.0
10,650172,-33.0
10,650173,-38.0
10,650174,-53.0
10,650175,-33.0
10,650176,113.0
10,650177,317.0
10,650178,268.0
10,650179,71.0
10,650180,-56.0
10,650181,-48.0
10,650182,-36.0
10,650183,-35.0
10,650184,-35.0
10,650185,-32.0
10,650186,-28.0
10,650187,-22.0
10,650188,-18.0
10,650189,-12.0
10,650190,-6.0
10,650191,0.0
10,650192,10.0
10,650193,23.0
10,650194,40.0
10,650195,57.0
10,650196,71.0
10,650197,82.0
10,650198,90.0
10,650199,96.0
10,650200,98.0
10,650201,90.0
10,650202,68.0
10,650203,38.0
10,650204,7.0
10,650205,-15.0
10,650206,-33.0
10,650207,-48.0
10,650208,-61.0
10,650209,-67.0
10,650210,-71.0
10,650211,-73.0
10,650212,-73.0
10,650213,-71.0
10,650214,-66.0
10,650215,-57.0
10,650216,-45.0
10,650217,-35.0
10,650218,-32.0
10,650219,-47.0
10,650220,-63.0
10,650221,-71.0
10,650222,-73.0
10,650223,-73.0
10,650224,-77.0
10,650225,-97.0
10,650226,-73.0
10,650227,80.0
10,650228,243.0
10,650229,182.0
10,650230,-8.0
10,650231,-97.0
10,650232,-75.0
10,650233,-56.0
10,650234,-55.0
10,650235,-56.0
10,650236,-52.0
10,650237,-46.0
10,650238,-42.0
10,650239,-37.0
10,650240,-30.0
10,650241,-21.0
10,650242,-11.0
10,650243,-1.0
10,650244,5.0
10,650245,13.0
10,650246,22.0
10,650247,36.0
10,650248,50.0
10,650249,61.0
10,650250,68.0
10,650251,72.0
10,650252,67.0
10,650253,47.0
10,650254,20.0
10,650255,-2.0
10,650256,-18.0
10,650257,-31.0
10,650258,-38.0
10,650259,-41.0
10,650260,-38.0
10,650261,-33.0
10,650262,-30.0
10,650263,-27.0
10,650264,-23.0
10,650265,-15.0
10,650266,0.0
10,650267,15.0
10,650268,28.0
10,650269,31.0
10,650270,17.0
10,650271,-2.0
10,650272,-17.0
10,650273,-25.0
10,650274,-27.0
10,650275,-31.0
10,650276,-41.0
10,650277,-51.0
10,650278,23.0
10,650279,217.0
10,650280,315.0
10,650281,171.0
10,650282,-11.0
10,650283,-58.0
10,650284,-41.0
10,650285,-36.0
10,650286,-33.0
10,650287,-28.0
10,650288,-22.0
10,650289,-17.0
10,650290,-12.0
10,650291,-7.0
10,650292,1.0
10,650293,15.0
10,650294,25.0
10,650295,33.0
10,650296,43.0
10,650297,55.0
10,650298,65.0
10,650299,75.0
10,650300,82.0
10,650301,87.0
10,650302,88.0
10,650303,82.0
10,650304,63.0
10,650305,36.0
10,650306,6.0
10,650307,-20.0
10,650308,-42.0
10,650309,-55.0
10,650310,-61.0
10,650311,-66.0
10,650312,-68.0
10,650313,-70.0
10,650314,-68.0
10,650315,-65.0
10,650316,-60.0
10,650317,-53.0
10,650318,-43.0
10,650319,-36.0
10,650320,-32.0
10,650321,-43.0
10,650322,-62.0
10,650323,-77.0
10,650324,-83.0
10,650325,-85.0
10,650326,-86.0
10,650327,-93.0
10,650328,-98.0
10,650329,5.0
10,650330,202.0
10,650331,261.0
10,650332,81.0
10,650333,-75.0
10,650334,-95.0
10,650335,-63.0
10,650336,-60.0
10,650337,-61.0
10,650338,-57.0
10,650339,-48.0
10,650340,-38.0
10,650341,-32.0
10,650342,-27.0
10,650343,-21.0
10,650344,-10.0
10,650345,2.0
10,650346,16.0
10,650347,31.0
10,650348,43.0
10,650349,53.0
10,650350,66.0
10,650351,78.0
10,650352,92.0
10,650353,101.0
10,650354,98.0
10,650355,85.0
10,650356,60.0
10,650357,32.0
10,650358,12.0
10,650359,-1.0
10,650360,-8.0
10,650361,-12.0
10,650362,-11.0
10,650363,-8.0
10,650364,-8.0
10,650365,-12.0
10,650366,-18.0
10,650367,-22.0
10,650368,-17.0
10,650369,-6.0
10,650370,5.0
10,650371,11.0
10,650372,2.0
10,650373,-18.0
10,650374,-40.0
10,650375,-51.0
10,650376,-53.0
10,650377,-50.0
10,650378,-51.0
10,650379,-65.0
10,650380,-27.0
10,650381,138.0
10,650382,288.0
10,650383,210.0
10,650384,16.0
10,650385,-65.0
10,650386,-47.0
10,650387,-33.0
10,650388,-28.0
10,650389,-25.0
10,650390,-18.0
10,650391,-12.0
10,650392,-6.0
10,650393,-3.0
10,650394,1.0
10,650395,5.0
10,650396,12.0
10,650397,22.0
10,650398,32.0
10,650399,37.0
10,650400,43.0
10,650401,52.0
10,650402,60.0
10,650403,66.0
10,650404,72.0
10,650405,70.0
10,650406,58.0
10,650407,36.0
10,650408,11.0
10,650409,-11.0
10,650410,-30.0
10,650411,-45.0
10,650412,-55.0
10,650413,-62.0
10,650414,-66.0
10,650415,-67.0
10,650416,-70.0
10,650417,-71.0
10,650418,-61.0
10,650419,-45.0
10,650420,-35.0
10,650421,-31.0
10,650422,-28.0
10,650423,-33.0
10,650424,-46.0
10,650425,-60.0
10,650426,-66.0
10,650427,-70.0
10,650428,-71.0
10,650429,-77.0
10,650430,-92.0
10,650431,-40.0
10,650432,146.0
10,650433,273.0
10,650434,157.0
10,650435,-32.0
10,650436,-93.0
10,650437,-76.0
10,650438,-68.0
10,650439,-65.0
10,650440,-60.0
10,650441,-57.0
10,650442,-51.0
10,650443,-42.0
10,650444,-27.0
10,650445,-18.0
10,650446,-13.0
10,650447,-7.0
10,650448,3.0
10,650449,17.0
10,650450,31.0
10,650451,46.0
10,650452,57.0
10,650453,67.0
10,650454,71.0
10,650455,72.0
10,650456,70.0
10,650457,60.0
10,650458,38.0
10,650459,12.0
10,650460,-13.0
10,650461,-33.0
10,650462,-45.0
10,650463,-47.0
10,650464,-43.0
10,650465,-40.0
10,650466,-36.0
10,650467,-32.0
10,650468,-27.0
10,650469,-20.0
10,650470,-10.0
10,650471,7.0
10,650472,30.0
10,650473,52.0
10,650474,56.0
10,650475,35.0
10,650476,13.0
10,650477,-1.0
10,650478,-8.0
10,650479,-11.0
10,650480,-16.0
10,650481,-28.0
10,650482,-6.0
10,650483,150.0
10,650484,336.0
10,650485,280.0
10,650486,77.0
10,650487,-45.0
10,650488,-37.0
10,650489,-23.0
10,650490,-22.0
10,650491,-22.0
10,650492,-22.0
10,650493,-20.0
10,650494,-18.0
10,650495,-13.0
10,650496,-6.0
10,650497,2.0
10,650498,8.0
10,650499,17.0
10,650500,31.0
10,650501,47.0
10,650502,58.0
10,650503,66.0
10,650504,73.0
10,650505,81.0
10,650506,87.0
10,650507,88.0
10,650508,82.0
10,650509,60.0
10,650510,27.0
10,650511,-3.0
10,650512,-27.0
10,650513,-47.0
10,650514,-60.0
10,650515,-65.0
10,650516,-67.0
10,650517,-66.0
10,650518,-67.0
10,650519,-70.0
10,650520,-67.0
10,650521,-61.0
10,650522,-51.0
10,650523,-42.0
10,650524,-41.0
10,650525,-53.0
10,650526,-76.0
10,650527,-95.0
10,650528,-100.0
10,650529,-93.0
10,650530,-88.0
10,650531,-96.0
10,650532,-112.0
10,650533,-57.0
10,650534,125.0
10,650535,247.0
10,650536,133.0
10,650537,-43.0
10,650538,-95.0
10,650539,-72.0
10,650540,-62.0
10,650541,-58.0
10,650542,-53.0
10,650543,-47.0
10,650544,-38.0
10,650545,-30.0
10,650546,-21.0
10,650547,-10.0
10,650548,2.0
10,650549,17.0
10,650550,28.0
10,650551,41.0
10,650552,53.0
10,650553,65.0
10,650554,72.0
10,650555,82.0
10,650556,95.0
10,650557,103.0
10,650558,106.0
10,650559,95.0
10,650560,78.0
10,650561,60.0
10,650562,40.0
10,650563,16.0
10,650564,-2.0
10,650565,-15.0
10,650566,-21.0
10,650567,-22.0
10,650568,-21.0
10,650569,-25.0
10,650570,-28.0
10,650571,-30.0
10,650572,-25.0
10,650573,-15.0
10,650574,-3.0
10,650575,6.0
10,650576,2.0
10,650577,-13.0
10,650578,-35.0
10,650579,-46.0
10,650580,-52.0
10,650581,-53.0
10,650582,-56.0
10,650583,-65.0
10,650584,-38.0
10,650585,112.0
10,650586,298.0
10,650587,246.0
10,650588,50.0
10,650589,-57.0
10,650590,-46.0
10,650591,-30.0
10,650592,-26.0
10,650593,-23.0
10,650594,-21.0
10,650595,-20.0
10,650596,-22.0
10,650597,-20.0
10,650598,-13.0
10,650599,-8.0
10,650600,-3.0
10,650601,3.0
10,650602,13.0
10,650603,20.0
10,650604,26.0
10,650605,37.0
10,650606,51.0
10,650607,60.0
10,650608,61.0
10,650609,57.0
10,650610,45.0
10,650611,17.0
10,650612,-10.0
10,650613,-35.0
10,650614,-53.0
10,650615,-68.0
10,650616,-76.0
10,650617,-82.0
10,650618,-86.0
10,650619,-87.0
10,650620,-83.0
10,650621,-78.0
10,650622,-72.0
10,650623,-63.0
10,650624,-50.0
10,650625,-33.0
10,650626,-22.0
10,650627,-26.0
10,650628,-42.0
10,650629,-60.0
10,650630,-71.0
10,650631,-72.0
10,650632,-70.0
10,650633,-68.0
10,650634,-81.0
10,650635,-56.0
10,650636,100.0
10,650637,310.0
10,650638,261.0
10,650639,62.0
10,650640,-56.0
10,650641,-45.0
10,650642,-28.0
10,650643,-23.0
10,650644,-18.0
10,650645,-6.0
10,650646,5.0
10,650647,12.0
10,650648,15.0
10,650649,17.0
10,650650,26.0
10,650651,36.0
10,650652,47.0
10,650653,60.0
10,650654,68.0
10,650655,75.0
10,650656,80.0
10,650657,88.0
10,650658,97.0
10,650659,108.0
10,650660,110.0
10,650661,98.0
10,650662,75.0
10,650663,46.0
10,650664,17.0
10,650665,-5.0
10,650666,-23.0
10,650667,-38.0
10,650668,-47.0
10,650669,-48.0
10,650670,-48.0
10,650671,-48.0
10,650672,-51.0
10,650673,-48.0
10,650674,-41.0
10,650675,-27.0
10,650676,-12.0
10,650677,0.0
10,650678,2.0
10,650679,-11.0
10,650680,-28.0
10,650681,-42.0
10,650682,-50.0
10,650683,-55.0
10,650684,-58.0
10,650685,-78.0
10,650686,-70.0
10,650687,50.0
10,650688,236.0
10,650689,275.0
10,650690,68.0
10,650691,-61.0
10,650692,-72.0
10,650693,-45.0
10,650694,-43.0
10,650695,-42.0
10,650696,-37.0
10,650697,-31.0
10,650698,-30.0
10,650699,-28.0
10,650700,-25.0
10,650701,-18.0
10,650702,-10.0
10,650703,0.0
10,650704,6.0
10,650705,12.0
10,650706,17.0
10,650707,25.0
10,650708,35.0
10,650709,45.0
10,650710,48.0
10,650711,50.0
10,650712,43.0
10,650713,30.0
10,650714,10.0
10,650715,-12.0
10,650716,-30.0
10,650717,-47.0
10,650718,-61.0
10,650719,-70.0
10,650720,-72.0
10,650721,-70.0
10,650722,-68.0
10,650723,-68.0
10,650724,-67.0
10,650725,-61.0
10,650726,-52.0
10,650727,-38.0
10,650728,-23.0
10,650729,-12.0
10,650730,-17.0
10,650731,-36.0
10,650732,-52.0
10,650733,-56.0
10,650734,-55.0
10,650735,-52.0
10,650736,-57.0
10,650737,-67.0
10,650738,2.0
10,650739,198.0
10,650740,313.0
10,650741,182.0
10,650742,-2.0
10,650743,-53.0
10,650744,-35.0
10,650745,-25.0
10,650746,-20.0
10,650747,-15.0
10,650748,-10.0
10,650749,-7.0
10,650750,-6.0
10,650751,-2.0
10,650752,3.0
10,650753,11.0
10,650754,21.0
10,650755,28.0
10,650756,38.0
10,650757,50.0
10,650758,62.0
10,650759,71.0
10,650760,82.0
10,650761,92.0
10,650762,98.0
10,650763,96.0
10,650764,80.0
10,650765,53.0
10,650766,23.0
10,650767,-1.0
10,650768,-20.0
10,650769,-35.0
10,650770,-43.0
10,650771,-50.0
10,650772,-55.0
10,650773,-56.0
10,650774,-55.0
10,650775,-51.0
10,650776,-45.0
10,650777,-35.0
10,650778,-22.0
10,650779,-8.0
10,650780,-1.0
10,650781,-7.0
10,650782,-25.0
10,650783,-42.0
10,650784,-50.0
10,650785,-52.0
10,650786,-53.0
10,650787,-62.0
10,650788,-76.0
10,650789,-16.0
10,650790,165.0
10,650791,275.0
10,650792,148.0
10,650793,-28.0
10,650794,-73.0
10,650795,-48.0
10,650796,-37.0
10,650797,-35.0
10,650798,-32.0
10,650799,-31.0
10,650800,-28.0
10,650801,-22.0
10,650802,-12.0
10,650803,-3.0
10,650804,3.0
10,650805,11.0
10,650806,18.0
10,650807,27.0
10,650808,36.0
10,650809,42.0
10,650810,48.0
10,650811,55.0
10,650812,63.0
10,650813,70.0
10,650814,67.0
10,650815,53.0
10,650816,30.0
10,650817,3.0
10,650818,-20.0
10,650819,-37.0
10,650820,-51.0
10,650821,-60.0
10,650822,-62.0
10,650823,-63.0
10,650824,-65.0
10,650825,-65.0
10,650826,-61.0
10,650827,-56.0
10,650828,-46.0
10,650829,-32.0
10,650830,-17.0
10,650831,-7.0
10,650832,-11.0
10,650833,-28.0
10,650834,-47.0
10,650835,-58.0
10,650836,-63.0
10,650837,-65.0
10,650838,-68.0
10,650839,-83.0
10,650840,-53.0
10,650841,116.0
10,650842,291.0
10,650843,226.0
10,650844,22.0
10,650845,-72.0
10,650846,-58.0
10,650847,-46.0
10,650848,-45.0
10,650849,-46.0
10,650850,-42.0
10,650851,-37.0
10,650852,-32.0
10,650853,-25.0
10,650854,-15.0
10,650855,-3.0
10,650856,5.0
10,650857,12.0
10,650858,22.0
10,650859,32.0
10,650860,46.0
10,650861,61.0
10,650862,76.0
10,650863,85.0
10,650864,90.0
10,650865,88.0
10,650866,76.0
10,650867,52.0
10,650868,25.0
10,650869,1.0
10,650870,-20.0
10,650871,-35.0
10,650872,-43.0
10,650873,-50.0
10,650874,-50.0
10,650875,-47.0
10,650876,-48.0
10,650877,-53.0
10,650878,-55.0
10,650879,-46.0
10,650880,-35.0
10,650881,-20.0
10,650882,-5.0
10,650883,-1.0
10,650884,-13.0
10,650885,-35.0
10,650886,-51.0
10,650887,-55.0
10,650888,-52.0
10,650889,-48.0
10,650890,-65.0
10,650891,-57.0
10,650892,58.0
10,650893,258.0
10,650894,310.0
10,650895,107.0
10,650896,-41.0
10,650897,-57.0
10,650898,-33.0
10,650899,-30.0
10,650900,-26.0
10,650901,-25.0
10,650902,-22.0
10,650903,-20.0
10,650904,-15.0
10,650905,-7.0
10,650906,-2.0
10,650907,3.0
10,650908,12.0
10,650909,21.0
10,650910,31.0
10,650911,42.0
10,650912,51.0
10,650913,60.0
10,650914,70.0
10,650915,78.0
10,650916,85.0
10,650917,81.0
10,650918,62.0
10,650919,37.0
10,650920,10.0
10,650921,-13.0
10,650922,-35.0
10,650923,-48.0
10,650924,-53.0
10,650925,-55.0
10,650926,-52.0
10,650927,-52.0
10,650928,-56.0
10,650929,-53.0
10,650930,-47.0
10,650931,-35.0
10,650932,-20.0
10,650933,-7.0
10,650934,-6.0
10,650935,-22.0
10,650936,-45.0
10,650937,-58.0
10,650938,-62.0
10,650939,-62.0
10,650940,-65.0
10,650941,-82.0
10,650942,-67.0
10,650943,62.0
10,650944,256.0
10,650945,215.0
10,650946,31.0
10,650947,-76.0
10,650948,-63.0
10,650949,-42.0
10,650950,-35.0
10,650951,-30.0
10,650952,-26.0
10,650953,-25.0
10,650954,-20.0
10,650955,-12.0
10,650956,-3.0
10,650957,3.0
10,650958,7.0
10,650959,15.0
10,650960,26.0
10,650961,38.0
10,650962,47.0
10,650963,55.0
10,650964,62.0
10,650965,68.0
10,650966,73.0
10,650967,75.0
10,650968,62.0
10,650969,42.0
10,650970,16.0
10,650971,-8.0
10,650972,-28.0
10,650973,-43.0
10,650974,-50.0
10,650975,-57.0
10,650976,-62.0
10,650977,-63.0
10,650978,-61.0
10,650979,-58.0
10,650980,-53.0
10,650981,-47.0
10,650982,-38.0
10,650983,-28.0
10,650984,-16.0
10,650985,-11.0
10,650986,-20.0
10,650987,-40.0
10,650988,-56.0
10,650989,-63.0
10,650990,-62.0
10,650991,-61.0
10,650992,-70.0
10,650993,-78.0
10,650994,15.0
10,650995,218.0
10,650996,296.0
10,650997,135.0
10,650998,-36.0
10,650999,-67.0
10,651000,-46.0
10,651001,-42.0
10,651002,-40.0
10,651003,-35.0
10,651004,-26.0
10,651005,-17.0
10,651006,-10.0
10,651007,-3.0
10,651008,2.0
10,651009,12.0
10,651010,25.0
10,651011,35.0
10,651012,43.0
10,651013,53.0
10,651014,65.0
10,651015,76.0
10,651016,86.0
10,651017,96.0
10,651018,102.0
10,651019,100.0
10,651020,82.0
10,651021,53.0
10,651022,23.0
10,651023,0.0
10,651024,-20.0
10,651025,-32.0
10,651026,-38.0
10,651027,-42.0
10,651028,-47.0
10,651029,-51.0
10,651030,-53.0
10,651031,-56.0
10,651032,-52.0
10,651033,-41.0
10,651034,-27.0
10,651035,-13.0
10,651036,-7.0
10,651037,-15.0
10,651038,-35.0
10,651039,-48.0
10,651040,-53.0
10,651041,-51.0
10,651042,-48.0
10,651043,-53.0
10,651044,-62.0
10,651045,16.0
10,651046,202.0
10,651047,282.0
10,651048,133.0
10,651049,-33.0
10,651050,-63.0
10,651051,-42.0
10,651052,-37.0
10,651053,-38.0
10,651054,-38.0
10,651055,-38.0
10,651056,-35.0
10,651057,-31.0
10,651058,-23.0
10,651059,-12.0
10,651060,0.0
10,651061,10.0
10,651062,20.0
10,651063,30.0
10,651064,41.0
10,651065,48.0
10,651066,56.0
10,651067,63.0
10,651068,71.0
10,651069,76.0
10,651070,71.0
10,651071,52.0
10,651072,22.0
10,651073,-5.0
10,651074,-28.0
10,651075,-43.0
10,651076,-52.0
10,651077,-56.0
10,651078,-61.0
10,651079,-66.0
10,651080,-68.0
10,651081,-66.0
10,651082,-60.0
10,651083,-52.0
10,651084,-42.0
10,651085,-31.0
10,651086,-21.0
10,651087,-18.0
10,651088,-27.0
10,651089,-38.0
10,651090,-50.0
10,651091,-57.0
10,651092,-61.0
10,651093,-65.0
10,651094,-73.0
10,651095,-82.0
10,651096,5.0
10,651097,208.0
10,651098,296.0
10,651099,142.0
10,651100,-37.0
10,651101,-75.0
10,651102,-57.0
10,651103,-47.0
10,651104,-40.0
10,651105,-33.0
10,651106,-32.0
10,651107,-30.0
10,651108,-22.0
10,651109,-15.0
10,651110,-8.0
10,651111,-1.0
10,651112,7.0
10,651113,18.0
10,651114,32.0
10,651115,46.0
10,651116,57.0
10,651117,67.0
10,651118,76.0
10,651119,86.0
10,651120,90.0
10,651121,83.0
10,651122,68.0
10,651123,45.0
10,651124,20.0
10,651125,-1.0
10,651126,-18.0
10,651127,-30.0
10,651128,-32.0
10,651129,-33.0
10,651130,-36.0
10,651131,-40.0
10,651132,-43.0
10,651133,-45.0
10,651134,-37.0
10,651135,-27.0
10,651136,-15.0
10,651137,-3.0
10,651138,2.0
10,651139,-1.0
10,651140,-20.0
10,651141,-40.0
10,651142,-51.0
10,651143,-51.0
10,651144,-48.0
10,651145,-52.0
10,651146,-60.0
10,651147,17.0
10,651148,210.0
10,651149,300.0
10,651150,155.0
10,651151,-22.0
10,651152,-65.0
10,651153,-46.0
10,651154,-40.0
10,651155,-37.0
10,651156,-32.0
10,651157,-27.0
10,651158,-23.0
10,651159,-17.0
10,651160,-8.0
10,651161,-1.0
10,651162,6.0
10,651163,15.0
10,651164,27.0
10,651165,41.0
10,651166,53.0
10,651167,61.0
10,651168,68.0
10,651169,76.0
10,651170,82.0
10,651171,85.0
10,651172,76.0
10,651173,53.0
10,651174,25.0
10,651175,-2.0
10,651176,-27.0
10,651177,-42.0
10,651178,-52.0
10,651179,-56.0
10,651180,-57.0
10,651181,-61.0
10,651182,-66.0
10,651183,-67.0
10,651184,-66.0
10,651185,-58.0
10,651186,-43.0
10,651187,-30.0
10,651188,-20.0
10,651189,-22.0
10,651190,-38.0
10,651191,-58.0
10,651192,-68.0
10,651193,-70.0
10,651194,-66.0
10,651195,-65.0
10,651196,-83.0
10,651197,-63.0
10,651198,90.0
10,651199,286.0
10,651200,233.0
10,651201,38.0
10,651202,-68.0
10,651203,-57.0
10,651204,-40.0
10,651205,-33.0
10,651206,-31.0
10,651207,-31.0
10,651208,-27.0
10,651209,-22.0
10,651210,-17.0
10,651211,-8.0
10,651212,2.0
10,651213,11.0
10,651214,17.0
10,651215,25.0
10,651216,35.0
10,651217,45.0
10,651218,55.0
10,651219,63.0
10,651220,71.0
10,651221,76.0
10,651222,72.0
10,651223,57.0
10,651224,35.0
10,651225,8.0
10,651226,-15.0
10,651227,-38.0
10,651228,-55.0
10,651229,-66.0
10,651230,-72.0
10,651231,-73.0
10,651232,-73.0
10,651233,-71.0
10,651234,-67.0
10,651235,-60.0
10,651236,-50.0
10,651237,-41.0
10,651238,-28.0
10,651239,-13.0
10,651240,-17.0
10,651241,-35.0
10,651242,-52.0
10,651243,-63.0
10,651244,-68.0
10,651245,-67.0
10,651246,-63.0
10,651247,-70.0
10,651248,-48.0
10,651249,107.0
10,651250,317.0
10,651251,268.0
10,651252,65.0
10,651253,-58.0
10,651254,-48.0
10,651255,-33.0
10,651256,-30.0
10,651257,-26.0
10,651258,-22.0
10,651259,-20.0
10,651260,-12.0
10,651261,-5.0
10,651262,5.0
10,651263,13.0
10,651264,20.0
10,651265,28.0
10,651266,40.0
10,651267,53.0
10,651268,62.0
10,651269,70.0
10,651270,78.0
10,651271,90.0
10,651272,101.0
10,651273,103.0
10,651274,100.0
10,651275,78.0
10,651276,48.0
10,651277,20.0
10,651278,-2.0
10,651279,-18.0
10,651280,-30.0
10,651281,-36.0
10,651282,-42.0
10,651283,-48.0
10,651284,-50.0
10,651285,-48.0
10,651286,-46.0
10,651287,-41.0
10,651288,-32.0
10,651289,-18.0
10,651290,-6.0
10,651291,-11.0
10,651292,-28.0
10,651293,-45.0
10,651294,-53.0
10,651295,-55.0
10,651296,-51.0
10,651297,-50.0
10,651298,-63.0
10,651299,-33.0
10,651300,123.0
10,651301,272.0
10,651302,205.0
10,651303,16.0
10,651304,-65.0
10,651305,-50.0
10,651306,-38.0
10,651307,-35.0
10,651308,-33.0
10,651309,-35.0
10,651310,-35.0
10,651311,-28.0
10,651312,-21.0
10,651313,-15.0
10,651314,-6.0
10,651315,0.0
10,651316,10.0
10,651317,21.0
10,651318,35.0
10,651319,45.0
10,651320,52.0
10,651321,62.0
10,651322,71.0
10,651323,73.0
10,651324,66.0
10,651325,48.0
10,651326,26.0
10,651327,1.0
10,651328,-20.0
10,651329,-36.0
10,651330,-48.0
10,651331,-57.0
10,651332,-62.0
10,651333,-65.0
10,651334,-66.0
10,651335,-67.0
10,651336,-66.0
10,651337,-61.0
10,651338,-53.0
10,651339,-43.0
10,651340,-31.0
10,651341,-22.0
10,651342,-27.0
10,651343,-45.0
10,651344,-65.0
10,651345,-75.0
10,651346,-76.0
10,651347,-73.0
10,651348,-76.0
10,651349,-86.0
10,651350,-43.0
10,651351,136.0
10,651352,288.0
10,651353,196.0
10,651354,-5.0
10,651355,-83.0
10,651356,-63.0
10,651357,-48.0
10,651358,-45.0
10,651359,-38.0
10,651360,-30.0
10,651361,-23.0
10,651362,-15.0
10,651363,-7.0
10,651364,-2.0
10,651365,5.0
10,651366,15.0
10,651367,30.0
10,651368,46.0
10,651369,62.0
10,651370,76.0
10,651371,91.0
10,651372,106.0
10,651373,118.0
10,651374,121.0
10,651375,113.0
10,651376,96.0
10,651377,70.0
10,651378,42.0
10,651379,16.0
10,651380,-3.0
10,651381,-18.0
10,651382,-30.0
10,651383,-37.0
10,651384,-40.0
10,651385,-40.0
10,651386,-38.0
10,651387,-41.0
10,651388,-42.0
10,651389,-33.0
10,651390,-23.0
10,651391,-12.0
10,651392,-2.0
10,651393,-5.0
10,651394,-20.0
10,651395,-38.0
10,651396,-50.0
10,651397,-53.0
10,651398,-50.0
10,651399,-52.0
10,651400,-67.0
10,651401,-43.0
10,651402,110.0
10,651403,293.0
10,651404,238.0
10,651405,45.0
10,651406,-60.0
10,651407,-48.0
10,651408,-35.0
10,651409,-28.0
10,651410,-25.0
10,651411,-22.0
10,651412,-21.0
10,651413,-20.0
10,651414,-15.0
10,651415,-8.0
10,651416,-3.0
10,651417,1.0
10,651418,7.0
10,651419,16.0
10,651420,27.0
10,651421,37.0
10,651422,47.0
10,651423,61.0
10,651424,75.0
10,651425,80.0
10,651426,72.0
10,651427,55.0
10,651428,32.0
10,651429,8.0
10,651430,-10.0
10,651431,-28.0
10,651432,-38.0
10,651433,-43.0
10,651434,-47.0
10,651435,-56.0
10,651436,-61.0
10,651437,-61.0
10,651438,-60.0
10,651439,-58.0
10,651440,-52.0
10,651441,-41.0
10,651442,-30.0
10,651443,-23.0
10,651444,-27.0
10,651445,-42.0
10,651446,-63.0
10,651447,-76.0
10,651448,-80.0
10,651449,-80.0
10,651450,-78.0
10,651451,-88.0
10,651452,-52.0
10,651453,118.0
10,651454,291.0
10,651455,226.0
10,651456,22.0
10,651457,-75.0
10,651458,-61.0
10,651459,-46.0
10,651460,-42.0
10,651461,-43.0
10,651462,-47.0
10,651463,-48.0
10,651464,-41.0
10,651465,-33.0
10,651466,-25.0
10,651467,-15.0
10,651468,-6.0
10,651469,5.0
10,651470,16.0
10,651471,30.0
10,651472,38.0
10,651473,46.0
10,651474,52.0
10,651475,61.0
10,651476,72.0
10,651477,78.0
10,651478,67.0
10,651479,42.0
10,651480,15.0
10,651481,-10.0
10,651482,-28.0
10,651483,-38.0
10,651484,-43.0
10,651485,-48.0
10,651486,-51.0
10,651487,-50.0
10,651488,-46.0
10,651489,-42.0
10,651490,-40.0
10,651491,-32.0
10,651492,-18.0
10,651493,-3.0
10,651494,10.0
10,651495,17.0
10,651496,13.0
10,651497,1.0
10,651498,-6.0
10,651499,-11.0
10,651500,-16.0
10,651501,-22.0
10,651502,-30.0
10,651503,-42.0
10,651504,23.0
10,651505,221.0
10,651506,338.0
10,651507,207.0
10,651508,12.0
10,651509,-46.0
10,651510,-30.0
10,651511,-20.0
10,651512,-18.0
10,651513,-13.0
10,651514,-11.0
10,651515,-7.0
10,651516,-6.0
10,651517,-6.0
10,651518,-2.0
10,651519,5.0
10,651520,13.0
10,651521,23.0
10,651522,33.0
10,651523,45.0
10,651524,56.0
10,651525,66.0
10,651526,76.0
10,651527,87.0
10,651528,93.0
10,651529,88.0
10,651530,72.0
10,651531,46.0
10,651532,16.0
10,651533,-10.0
10,651534,-31.0
10,651535,-46.0
10,651536,-55.0
10,651537,-62.0
10,651538,-70.0
10,651539,-75.0
10,651540,-76.0
10,651541,-73.0
10,651542,-67.0
10,651543,-58.0
10,651544,-48.0
10,651545,-37.0
10,651546,-30.0
10,651547,-27.0
10,651548,-41.0
10,651549,-56.0
10,651550,-63.0
10,651551,-65.0
10,651552,-63.0
10,651553,-67.0
10,651554,-86.0
10,651555,-62.0
10,651556,96.0
10,651557,277.0
10,651558,218.0
10,651559,20.0
10,651560,-80.0
10,651561,-67.0
10,651562,-51.0
10,651563,-47.0
10,651564,-47.0
10,651565,-45.0
10,651566,-38.0
10,651567,-31.0
10,651568,-22.0
10,651569,-15.0
10,651570,-6.0
10,651571,1.0
10,651572,10.0
10,651573,18.0
10,651574,31.0
10,651575,45.0
10,651576,58.0
10,651577,71.0
10,651578,81.0
10,651579,88.0
10,651580,86.0
10,651581,71.0
10,651582,45.0
10,651583,16.0
10,651584,-8.0
10,651585,-31.0
10,651586,-47.0
10,651587,-56.0
10,651588,-57.0
10,651589,-58.0
10,651590,-60.0
10,651591,-61.0
10,651592,-60.0
10,651593,-57.0
10,651594,-55.0
10,651595,-47.0
10,651596,-35.0
10,651597,-17.0
10,651598,-5.0
10,651599,-11.0
10,651600,-32.0
10,651601,-52.0
10,651602,-60.0
10,651603,-56.0
10,651604,-52.0
10,651605,-56.0
10,651606,-72.0
10,651607,-35.0
10,651608,142.0
10,651609,302.0
10,651610,222.0
10,651611,20.0
10,651612,-66.0
10,651613,-52.0
10,651614,-40.0
10,651615,-36.0
10,651616,-32.0
10,651617,-27.0
10,651618,-22.0
10,651619,-18.0
10,651620,-12.0
10,651621,-2.0
10,651622,6.0
10,651623,12.0
10,651624,20.0
10,651625,28.0
10,651626,38.0
10,651627,50.0
10,651628,61.0
10,651629,75.0
10,651630,85.0
10,651631,95.0
10,651632,95.0
10,651633,82.0
10,651634,58.0
10,651635,31.0
10,651636,6.0
10,651637,-13.0
10,651638,-28.0
10,651639,-41.0
10,651640,-47.0
10,651641,-51.0
10,651642,-52.0
10,651643,-55.0
10,651644,-56.0
10,651645,-55.0
10,651646,-48.0
10,651647,-37.0
10,651648,-22.0
10,651649,-7.0
10,651650,-1.0
10,651651,-10.0
10,651652,-30.0
10,651653,-48.0
10,651654,-56.0
10,651655,-56.0
10,651656,-58.0
10,651657,-68.0
10,651658,-78.0
10,651659,0.0
10,651660,187.0
10,651661,272.0
10,651662,126.0
10,651663,-42.0
10,651664,-72.0
10,651665,-47.0
10,651666,-37.0
10,651667,-32.0
10,651668,-28.0
10,651669,-26.0
10,651670,-20.0
10,651671,-15.0
10,651672,-8.0
10,651673,-1.0
10,651674,6.0
10,651675,17.0
10,651676,28.0
10,651677,41.0
10,651678,52.0
10,651679,60.0
10,651680,70.0
10,651681,77.0
10,651682,82.0
10,651683,83.0
10,651684,75.0
10,651685,57.0
10,651686,32.0
10,651687,6.0
10,651688,-16.0
10,651689,-33.0
10,651690,-45.0
10,651691,-53.0
10,651692,-60.0
10,651693,-63.0
10,651694,-65.0
10,651695,-61.0
10,651696,-56.0
10,651697,-53.0
10,651698,-53.0
10,651699,-50.0
10,651700,-36.0
10,651701,-20.0
10,651702,-12.0
10,651703,-21.0
10,651704,-41.0
10,651705,-58.0
10,651706,-70.0
10,651707,-73.0
10,651708,-71.0
10,651709,-76.0
10,651710,-85.0
10,651711,-7.0
10,651712,195.0
10,651713,302.0
10,651714,157.0
10,651715,-32.0
10,651716,-80.0
10,651717,-56.0
10,651718,-47.0
10,651719,-47.0
10,651720,-43.0
10,651721,-36.0
10,651722,-27.0
10,651723,-20.0
10,651724,-15.0
10,651725,-6.0
10,651726,2.0
10,651727,13.0
10,651728,25.0
10,651729,35.0
10,651730,47.0
10,651731,60.0
10,651732,73.0
10,651733,82.0
10,651734,92.0
10,651735,101.0
10,651736,98.0
10,651737,85.0
10,651738,58.0
10,651739,32.0
10,651740,8.0
10,651741,-10.0
10,651742,-25.0
10,651743,-35.0
10,651744,-42.0
10,651745,-46.0
10,651746,-45.0
10,651747,-43.0
10,651748,-46.0
10,651749,-50.0
10,651750,-46.0
10,651751,-36.0
10,651752,-23.0
10,651753,-11.0
10,651754,-1.0
10,651755,-6.0
10,651756,-25.0
10,651757,-43.0
10,651758,-55.0
10,651759,-57.0
10,651760,-56.0
10,651761,-60.0
10,651762,-71.0
10,651763,-8.0
10,651764,178.0
10,651765,298.0
10,651766,176.0
10,651767,-15.0
10,651768,-72.0
10,651769,-52.0
10,651770,-38.0
10,651771,-36.0
10,651772,-32.0
10,651773,-31.0
10,651774,-26.0
10,651775,-23.0
10,651776,-20.0
10,651777,-10.0
10,651778,1.0
10,651779,11.0
10,651780,21.0
10,651781,31.0
10,651782,43.0
10,651783,55.0
10,651784,66.0
10,651785,75.0
10,651786,85.0
10,651787,88.0
10,651788,80.0
10,651789,61.0
10,651790,32.0
10,651791,6.0
10,651792,-11.0
10,651793,-26.0
10,651794,-38.0
10,651795,-46.0
10,651796,-48.0
10,651797,-51.0
10,651798,-50.0
10,651799,-47.0
10,651800,-45.0
10,651801,-46.0
10,651802,-47.0
10,651803,-42.0
10,651804,-32.0
10,651805,-16.0
10,651806,-7.0
10,651807,-11.0
10,651808,-28.0
10,651809,-46.0
10,651810,-56.0
10,651811,-60.0
10,651812,-58.0
10,651813,-63.0
10,651814,-76.0
10,651815,-10.0
10,651816,188.0
10,651817,318.0
10,651818,193.0
10,651819,-6.0
10,651820,-70.0
10,651821,-50.0
10,651822,-38.0
10,651823,-37.0
10,651824,-36.0
10,651825,-31.0
10,651826,-23.0
10,651827,-17.0
10,651828,-12.0
10,651829,-10.0
10,651830,-3.0
10,651831,2.0
10,651832,13.0
10,651833,23.0
10,651834,31.0
10,651835,41.0
10,651836,51.0
10,651837,58.0
10,651838,63.0
10,651839,68.0
10,651840,67.0
10,651841,52.0
10,651842,30.0
10,651843,2.0
10,651844,-18.0
10,651845,-36.0
10,651846,-48.0
10,651847,-60.0
10,651848,-67.0
10,651849,-68.0
10,651850,-67.0
10,651851,-67.0
10,651852,-67.0
10,651853,-65.0
10,651854,-60.0
10,651855,-55.0
10,651856,-43.0
10,651857,-30.0
10,651858,-17.0
10,651859,-13.0
10,651860,-23.0
10,651861,-42.0
10,651862,-53.0
10,651863,-57.0
10,651864,-55.0
10,651865,-53.0
10,651866,-67.0
10,651867,-50.0
10,651868,101.0
10,651869,316.0
10,651870,268.0
10,651871,67.0
10,651872,-60.0
10,651873,-50.0
10,651874,-33.0
10,651875,-27.0
10,651876,-23.0
10,651877,-20.0
10,651878,-12.0
10,651879,-5.0
10,651880,-2.0
10,651881,2.0
10,651882,10.0
10,651883,20.0
10,651884,31.0
10,651885,41.0
10,651886,52.0
10,651887,62.0
10,651888,72.0
10,651889,82.0
10,651890,95.0
10,651891,105.0
10,651892,107.0
10,651893,97.0
10,651894,73.0
10,651895,45.0
10,651896,17.0
10,651897,-5.0
10,651898,-23.0
10,651899,-37.0
10,651900,-45.0
10,651901,-50.0
10,651902,-53.0
10,651903,-55.0
10,651904,-55.0
10,651905,-55.0
10,651906,-52.0
10,651907,-45.0
10,651908,-35.0
10,651909,-21.0
10,651910,-8.0
10,651911,-3.0
10,651912,-20.0
10,651913,-43.0
10,651914,-60.0
10,651915,-62.0
10,651916,-61.0
10,651917,-58.0
10,651918,-81.0
10,651919,-68.0
10,651920,66.0
10,651921,270.0
10,651922,230.0
10,651923,43.0
10,651924,-73.0
10,651925,-62.0
10,651926,-41.0
10,651927,-33.0
10,651928,-27.0
10,651929,-25.0
10,651930,-20.0
10,651931,-11.0
10,651932,-5.0
10,651933,-1.0
10,651934,3.0
10,651935,10.0
10,651936,18.0
10,651937,27.0
10,651938,35.0
10,651939,43.0
10,651940,55.0
10,651941,63.0
10,651942,70.0
10,651943,71.0
10,651944,72.0
10,651945,66.0
10,651946,47.0
10,651947,20.0
10,651948,-7.0
10,651949,-27.0
10,651950,-40.0
10,651951,-48.0
10,651952,-56.0
10,651953,-63.0
10,651954,-67.0
10,651955,-66.0
10,651956,-67.0
10,651957,-66.0
10,651958,-66.0
10,651959,-62.0
10,651960,-51.0
10,651961,-35.0
10,651962,-21.0
10,651963,-16.0
10,651964,-25.0
10,651965,-42.0
10,651966,-56.0
10,651967,-61.0
10,651968,-62.0
10,651969,-65.0
10,651970,-73.0
10,651971,-80.0
10,651972,2.0
10,651973,207.0
10,651974,310.0
10,651975,166.0
10,651976,-18.0
10,651977,-62.0
10,651978,-41.0
10,651979,-31.0
10,651980,-26.0
10,651981,-20.0
10,651982,-10.0
10,651983,-3.0
10,651984,-1.0
10,651985,1.0
10,651986,6.0
10,651987,12.0
10,651988,23.0
10,651989,36.0
10,651990,46.0
10,651991,56.0
10,651992,70.0
10,651993,82.0
10,651994,92.0
10,651995,101.0
10,651996,107.0
10,651997,106.0
10,651998,91.0
10,651999,63.0
10,652000,31.0
10,652001,3.0
10,652002,-15.0
10,652003,-31.0
10,652004,-41.0
10,652005,-48.0
10,652006,-48.0
10,652007,-50.0
10,652008,-50.0
10,652009,-50.0
10,652010,-51.0
10,652011,-48.0
10,652012,-42.0
10,652013,-32.0
10,652014,-17.0
10,652015,-7.0
10,652016,-13.0
10,652017,-33.0
10,652018,-52.0
10,652019,-61.0
10,652020,-62.0
10,652021,-62.0
10,652022,-67.0
10,652023,-78.0
10,652024,-26.0
10,652025,152.0
10,652026,281.0
10,652027,175.0
10,652028,-12.0
10,652029,-73.0
10,652030,-50.0
10,652031,-33.0
10,652032,-32.0
10,652033,-32.0
10,652034,-30.0
10,652035,-25.0
10,652036,-16.0
10,652037,-7.0
10,652038,0.0
10,652039,5.0
10,652040,12.0
10,652041,21.0
10,652042,31.0
10,652043,40.0
10,652044,45.0
10,652045,52.0
10,652046,62.0
10,652047,70.0
10,652048,75.0
10,652049,70.0
10,652050,55.0
10,652051,31.0
10,652052,5.0
10,652053,-17.0
10,652054,-36.0
10,652055,-52.0
10,652056,-63.0
10,652057,-67.0
10,652058,-70.0
10,652059,-71.0
10,652060,-71.0
10,652061,-68.0
10,652062,-66.0
10,652063,-62.0
10,652064,-56.0
10,652065,-46.0
10,652066,-32.0
10,652067,-18.0
10,652068,-12.0
10,652069,-21.0
10,652070,-37.0
10,652071,-52.0
10,652072,-60.0
10,652073,-62.0
10,652074,-56.0
10,652075,-60.0
10,652076,-66.0
10,652077,43.0
10,652078,247.0
10,652079,310.0
10,652080,128.0
10,652081,-35.0
10,652082,-60.0
10,652083,-33.0
10,652084,-23.0
10,652085,-17.0
10,652086,-15.0
10,652087,-10.0
10,652088,-6.0
10,652089,-5.0
10,652090,-2.0
10,652091,5.0
10,652092,12.0
10,652093,21.0
10,652094,32.0
10,652095,42.0
10,652096,51.0
10,652097,62.0
10,652098,77.0
10,652099,91.0
10,652100,100.0
10,652101,103.0
10,652102,96.0
10,652103,78.0
10,652104,48.0
10,652105,18.0
10,652106,-6.0
10,652107,-25.0
10,652108,-38.0
10,652109,-47.0
10,652110,-50.0
10,652111,-51.0
10,652112,-53.0
10,652113,-58.0
10,652114,-62.0
10,652115,-61.0
10,652116,-52.0
10,652117,-38.0
10,652118,-25.0
10,652119,-13.0
10,652120,-10.0
10,652121,-20.0
10,652122,-37.0
10,652123,-57.0
10,652124,-67.0
10,652125,-70.0
10,652126,-68.0
10,652127,-76.0
10,652128,-85.0
10,652129,-2.0
10,652130,188.0
10,652131,272.0
10,652132,126.0
10,652133,-42.0
10,652134,-73.0
10,652135,-47.0
10,652136,-35.0
10,652137,-30.0
10,652138,-27.0
10,652139,-23.0
10,652140,-15.0
10,652141,-5.0
10,652142,0.0
10,652143,7.0
10,652144,12.0
10,652145,21.0
10,652146,32.0
10,652147,43.0
10,652148,52.0
10,652149,60.0
10,652150,70.0
10,652151,77.0
10,652152,82.0
10,652153,85.0
10,652154,80.0
10,652155,62.0
10,652156,35.0
10,652157,5.0
10,652158,-15.0
10,652159,-31.0
10,652160,-43.0
10,652161,-52.0
10,652162,-57.0
10,652163,-61.0
10,652164,-61.0
10,652165,-57.0
10,652166,-55.0
10,652167,-56.0
10,652168,-55.0
10,652169,-48.0
10,652170,-37.0
10,652171,-23.0
10,652172,-11.0
10,652173,-8.0
10,652174,-28.0
10,652175,-50.0
10,652176,-63.0
10,652177,-68.0
10,652178,-71.0
10,652179,-75.0
10,652180,-87.0
10,652181,-66.0
10,652182,91.0
10,652183,293.0
10,652184,238.0
10,652185,33.0
10,652186,-85.0
10,652187,-75.0
10,652188,-60.0
10,652189,-53.0
10,652190,-46.0
10,652191,-41.0
10,652192,-35.0
10,652193,-27.0
10,652194,-20.0
10,652195,-13.0
10,652196,-7.0
10,652197,-1.0
10,652198,6.0
10,652199,21.0
10,652200,36.0
10,652201,50.0
10,652202,60.0
10,652203,70.0
10,652204,82.0
10,652205,92.0
10,652206,97.0
10,652207,90.0
10,652208,70.0
10,652209,41.0
10,652210,16.0
10,652211,-3.0
10,652212,-21.0
10,652213,-33.0
10,652214,-40.0
10,652215,-42.0
10,652216,-42.0
10,652217,-41.0
10,652218,-40.0
10,652219,-40.0
10,652220,-38.0
10,652221,-31.0
10,652222,-20.0
10,652223,-10.0
10,652224,1.0
10,652225,7.0
10,652226,0.0
10,652227,-17.0
10,652228,-32.0
10,652229,-37.0
10,652230,-38.0
10,652231,-38.0
10,652232,-45.0
10,652233,-52.0
10,652234,38.0
10,652235,235.0
10,652236,306.0
10,652237,145.0
10,652238,-26.0
10,652239,-58.0
10,652240,-37.0
10,652241,-32.0
10,652242,-31.0
10,652243,-28.0
10,652244,-23.0
10,652245,-20.0
10,652246,-15.0
10,652247,-10.0
10,652248,-2.0
10,652249,7.0
10,652250,17.0
10,652251,27.0
10,652252,38.0
10,652253,52.0
10,652254,66.0
10,652255,77.0
10,652256,85.0
10,652257,91.0
10,652258,92.0
10,652259,87.0
10,652260,68.0
10,652261,40.0
10,652262,8.0
10,652263,-15.0
10,652264,-36.0
10,652265,-52.0
10,652266,-61.0
10,652267,-62.0
10,652268,-61.0
10,652269,-63.0
10,652270,-63.0
10,652271,-63.0
10,652272,-62.0
10,652273,-56.0
10,652274,-42.0
10,652275,-25.0
10,652276,-12.0
10,652277,-16.0
10,652278,-32.0
10,652279,-51.0
10,652280,-62.0
10,652281,-66.0
10,652282,-67.0
10,652283,-68.0
10,652284,-82.0
10,652285,-67.0
10,652286,67.0
10,652287,273.0
10,652288,233.0
10,652289,47.0
10,652290,-73.0
10,652291,-63.0
10,652292,-48.0
10,652293,-47.0
10,652294,-48.0
10,652295,-43.0
10,652296,-37.0
10,652297,-32.0
10,652298,-25.0
10,652299,-18.0
10,652300,-11.0
10,652301,-5.0
10,652302,1.0
10,652303,12.0
10,652304,26.0
10,652305,38.0
10,652306,51.0
10,652307,60.0
10,652308,67.0
10,652309,73.0
10,652310,77.0
10,652311,71.0
10,652312,52.0
10,652313,25.0
10,652314,-1.0
10,652315,-18.0
10,652316,-33.0
10,652317,-43.0
10,652318,-47.0
10,652319,-45.0
10,652320,-43.0
10,652321,-41.0
10,652322,-40.0
10,652323,-41.0
10,652324,-43.0
10,652325,-38.0
10,652326,-27.0
10,652327,-12.0
10,652328,-2.0
10,652329,3.0
10,652330,-1.0
10,652331,-21.0
10,652332,-38.0
10,652333,-45.0
10,652334,-41.0
10,652335,-38.0
10,652336,-46.0
10,652337,-53.0
10,652338,33.0
10,652339,231.0
10,652340,311.0
10,652341,155.0
10,652342,-16.0
10,652343,-50.0
10,652344,-31.0
10,652345,-26.0
10,652346,-25.0
10,652347,-22.0
10,652348,-18.0
10,652349,-15.0
10,652350,-8.0
10,652351,-7.0
10,652352,-6.0
10,652353,-2.0
10,652354,6.0
10,652355,18.0
10,652356,32.0
10,652357,45.0
10,652358,55.0
10,652359,65.0
10,652360,75.0
10,652361,86.0
10,652362,96.0
10,652363,98.0
10,652364,80.0
10,652365,55.0
10,652366,26.0
10,652367,0.0
10,652368,-20.0
10,652369,-32.0
10,652370,-42.0
10,652371,-52.0
10,652372,-60.0
10,652373,-62.0
10,652374,-63.0
10,652375,-65.0
10,652376,-66.0
10,652377,-63.0
10,652378,-52.0
10,652379,-35.0
10,652380,-22.0
10,652381,-20.0
10,652382,-35.0
10,652383,-51.0
10,652384,-61.0
10,652385,-63.0
10,652386,-58.0
10,652387,-56.0
10,652388,-77.0
10,652389,-65.0
10,652390,72.0
10,652391,273.0
10,652392,230.0
10,652393,41.0
10,652394,-72.0
10,652395,-61.0
10,652396,-42.0
10,652397,-37.0
10,652398,-33.0
10,652399,-28.0
10,652400,-23.0
10,652401,-17.0
10,652402,-10.0
10,652403,-5.0
10,652404,1.0
10,652405,3.0
10,652406,12.0
10,652407,23.0
10,652408,35.0
10,652409,46.0
10,652410,55.0
10,652411,62.0
10,652412,67.0
10,652413,70.0
10,652414,68.0
10,652415,58.0
10,652416,37.0
10,652417,8.0
10,652418,-12.0
10,652419,-31.0
10,652420,-47.0
10,652421,-58.0
10,652422,-60.0
10,652423,-57.0
10,652424,-53.0
10,652425,-53.0
10,652426,-53.0
10,652427,-53.0
10,652428,-52.0
10,652429,-45.0
10,652430,-33.0
10,652431,-18.0
10,652432,-3.0
10,652433,-1.0
10,652434,-16.0
10,652435,-38.0
10,652436,-51.0
10,652437,-52.0
10,652438,-52.0
10,652439,-52.0
10,652440,-62.0
10,652441,-68.0
10,652442,45.0
10,652443,246.0
10,652444,303.0
10,652445,116.0
10,652446,-41.0
10,652447,-62.0
10,652448,-32.0
10,652449,-23.0
10,652450,-21.0
10,652451,-18.0
10,652452,-16.0
10,652453,-8.0
10,652454,-5.0
10,652455,-1.0
10,652456,2.0
10,652457,8.0
10,652458,17.0
10,652459,26.0
10,652460,36.0
10,652461,47.0
10,652462,57.0
10,652463,66.0
10,652464,73.0
10,652465,82.0
10,652466,92.0
10,652467,90.0
10,652468,70.0
10,652469,41.0
10,652470,15.0
10,652471,-8.0
10,652472,-30.0
10,652473,-45.0
10,652474,-51.0
10,652475,-53.0
10,652476,-55.0
10,652477,-57.0
10,652478,-58.0
10,652479,-57.0
10,652480,-53.0
10,652481,-47.0
10,652482,-37.0
10,652483,-23.0
10,652484,-11.0
10,652485,-15.0
10,652486,-33.0
10,652487,-53.0
10,652488,-66.0
10,652489,-68.0
10,652490,-67.0
10,652491,-70.0
10,652492,-87.0
10,652493,-61.0
10,652494,95.0
10,652495,255.0
10,652496,195.0
10,652497,7.0
10,652498,-78.0
10,652499,-65.0
10,652500,-51.0
10,652501,-47.0
10,652502,-45.0
10,652503,-36.0
10,652504,-25.0
10,652505,-11.0
10,652506,-5.0
10,652507,0.0
10,652508,5.0
10,652509,12.0
10,652510,22.0
10,652511,35.0
10,652512,48.0
10,652513,61.0
10,652514,68.0
10,652515,76.0
10,652516,83.0
10,652517,88.0
10,652518,88.0
10,652519,77.0
10,652520,53.0
10,652521,26.0
10,652522,5.0
10,652523,-15.0
10,652524,-31.0
10,652525,-40.0
10,652526,-42.0
10,652527,-43.0
10,652528,-45.0
10,652529,-45.0
10,652530,-45.0
10,652531,-43.0
10,652532,-38.0
10,652533,-31.0
10,652534,-21.0
10,652535,-8.0
10,652536,1.0
10,652537,-3.0
10,652538,-21.0
10,652539,-43.0
10,652540,-52.0
10,652541,-53.0
10,652542,-56.0
10,652543,-61.0
10,652544,-75.0
10,652545,-40.0
10,652546,130.0
10,652547,291.0
10,652548,216.0
10,652549,13.0
10,652550,-76.0
10,652551,-63.0
10,652552,-51.0
10,652553,-50.0
10,652554,-47.0
10,652555,-42.0
10,652556,-33.0
10,652557,-27.0
10,652558,-23.0
10,652559,-18.0
10,652560,-11.0
10,652561,-2.0
10,652562,5.0
10,652563,13.0
10,652564,22.0
10,652565,35.0
10,652566,50.0
10,652567,63.0
10,652568,76.0
10,652569,83.0
10,652570,85.0
10,652571,76.0
10,652572,57.0
10,652573,33.0
10,652574,6.0
10,652575,-18.0
10,652576,-37.0
10,652577,-42.0
10,652578,-45.0
10,652579,-47.0
10,652580,-47.0
10,652581,-48.0
10,652582,-50.0
10,652583,-52.0
10,652584,-50.0
10,652585,-41.0
10,652586,-28.0
10,652587,-15.0
10,652588,-5.0
10,652589,-10.0
10,652590,-27.0
10,652591,-43.0
10,652592,-52.0
10,652593,-52.0
10,652594,-51.0
10,652595,-58.0
10,652596,-70.0
10,652597,-3.0
10,652598,188.0
10,652599,303.0
10,652600,175.0
10,652601,-11.0
10,652602,-67.0
10,652603,-48.0
10,652604,-38.0
10,652605,-32.0
10,652606,-28.0
10,652607,-23.0
10,652608,-21.0
10,652609,-16.0
10,652610,-8.0
10,652611,-2.0
10,652612,3.0
10,652613,10.0
10,652614,18.0
10,652615,28.0
10,652616,40.0
10,652617,50.0
10,652618,61.0
10,652619,72.0
10,652620,82.0
10,652621,88.0
10,652622,86.0
10,652623,72.0
10,652624,51.0
10,652625,25.0
10,652626,-1.0
10,652627,-23.0
10,652628,-40.0
10,652629,-47.0
10,652630,-51.0
10,652631,-56.0
10,652632,-57.0
10,652633,-58.0
10,652634,-58.0
10,652635,-57.0
10,652636,-52.0
10,652637,-42.0
10,652638,-27.0
10,652639,-12.0
10,652640,-10.0
10,652641,-31.0
10,652642,-51.0
10,652643,-62.0
10,652644,-65.0
10,652645,-66.0
10,652646,-67.0
10,652647,-77.0
10,652648,-52.0
10,652649,103.0
10,652650,266.0
10,652651,206.0
10,652652,13.0
10,652653,-77.0
10,652654,-62.0
10,652655,-48.0
10,652656,-42.0
10,652657,-37.0
10,652658,-36.0
10,652659,-33.0
10,652660,-30.0
10,652661,-23.0
10,652662,-16.0
10,652663,-3.0
10,652664,7.0
10,652665,16.0
10,652666,23.0
10,652667,33.0
10,652668,42.0
10,652669,52.0
10,652670,63.0
10,652671,73.0
10,652672,80.0
10,652673,82.0
10,652674,73.0
10,652675,53.0
10,652676,28.0
10,652677,5.0
10,652678,-17.0
10,652679,-35.0
10,652680,-46.0
10,652681,-52.0
10,652682,-55.0
10,652683,-56.0
10,652684,-57.0
10,652685,-60.0
10,652686,-58.0
10,652687,-51.0
10,652688,-37.0
10,652689,-22.0
10,652690,-10.0
10,652691,-8.0
10,652692,-25.0
10,652693,-45.0
10,652694,-56.0
10,652695,-61.0
10,652696,-60.0
10,652697,-61.0
10,652698,-77.0
10,652699,-55.0
10,652700,97.0
10,652701,283.0
10,652702,228.0
10,652703,33.0
10,652704,-68.0
10,652705,-57.0
10,652706,-41.0
10,652707,-36.0
10,652708,-33.0
10,652709,-30.0
10,652710,-25.0
10,652711,-18.0
10,652712,-11.0
10,652713,-3.0
10,652714,5.0
10,652715,11.0
10,652716,21.0
10,652717,32.0
10,652718,42.0
10,652719,52.0
10,652720,61.0
10,652721,70.0
10,652722,78.0
10,652723,85.0
10,652724,87.0
10,652725,80.0
10,652726,58.0
10,652727,33.0
10,652728,8.0
10,652729,-15.0
10,652730,-33.0
10,652731,-45.0
10,652732,-50.0
10,652733,-51.0
10,652734,-52.0
10,652735,-52.0
10,652736,-52.0
10,652737,-51.0
10,652738,-46.0
10,652739,-36.0
10,652740,-21.0
10,652741,-7.0
10,652742,-5.0
10,652743,-21.0
10,652744,-42.0
10,652745,-57.0
10,652746,-61.0
10,652747,-60.0
10,652748,-60.0
10,652749,-77.0
10,652750,-70.0
10,652751,50.0
10,652752,238.0
10,652753,280.0
10,652754,73.0
10,652755,-61.0
10,652756,-75.0
10,652757,-46.0
10,652758,-38.0
10,652759,-33.0
10,652760,-31.0
10,652761,-26.0
10,652762,-20.0
10,652763,-13.0
10,652764,-6.0
10,652765,1.0
10,652766,7.0
10,652767,16.0
10,652768,26.0
10,652769,36.0
10,652770,46.0
10,652771,55.0
10,652772,61.0
10,652773,68.0
10,652774,77.0
10,652775,85.0
10,652776,81.0
10,652777,65.0
10,652778,41.0
10,652779,12.0
10,652780,-11.0
10,652781,-31.0
10,652782,-43.0
10,652783,-50.0
10,652784,-52.0
10,652785,-53.0
10,652786,-55.0
10,652787,-56.0
10,652788,-56.0
10,652789,-50.0
10,652790,-38.0
10,652791,-23.0
10,652792,-11.0
10,652793,-8.0
10,652794,-26.0
10,652795,-47.0
10,652796,-60.0
10,652797,-63.0
10,652798,-61.0
10,652799,-63.0
10,652800,-80.0
10,652801,-67.0
10,652802,60.0
10,652803,245.0
10,652804,278.0
10,652805,57.0
10,652806,-73.0
10,652807,-62.0
10,652808,-42.0
10,652809,-36.0
10,652810,-32.0
10,652811,-28.0
10,652812,-25.0
10,652813,-21.0
10,652814,-16.0
10,652815,-10.0
10,652816,-2.0
10,652817,6.0
10,652818,16.0
10,652819,25.0
10,652820,37.0
10,652821,48.0
10,652822,58.0
10,652823,68.0
10,652824,78.0
10,652825,86.0
10,652826,88.0
10,652827,81.0
10,652828,62.0
10,652829,36.0
10,652830,8.0
10,652831,-12.0
10,652832,-30.0
10,652833,-42.0
10,652834,-48.0
10,652835,-53.0
10,652836,-56.0
10,652837,-56.0
10,652838,-55.0
10,652839,-52.0
10,652840,-47.0
10,652841,-38.0
10,652842,-26.0
10,652843,-12.0
10,652844,-6.0
10,652845,-17.0
10,652846,-37.0
10,652847,-52.0
10,652848,-58.0
10,652849,-60.0
10,652850,-58.0
10,652851,-70.0
10,652852,-76.0
10,652853,25.0
10,652854,217.0
10,652855,275.0
10,652856,101.0
10,652857,-50.0
10,652858,-71.0
10,652859,-43.0
10,652860,-38.0
10,652861,-35.0
10,652862,-32.0
10,652863,-28.0
10,652864,-25.0
10,652865,-18.0
10,652866,-10.0
10,652867,-2.0
10,652868,6.0
10,652869,15.0
10,652870,23.0
10,652871,33.0
10,652872,42.0
10,652873,51.0
10,652874,60.0
10,652875,70.0
10,652876,80.0
10,652877,86.0
10,652878,81.0
10,652879,63.0
10,652880,40.0
10,652881,13.0
10,652882,-8.0
10,652883,-27.0
10,652884,-41.0
10,652885,-48.0
10,652886,-53.0
10,652887,-55.0
10,652888,-55.0
10,652889,-53.0
10,652890,-52.0
10,652891,-48.0
10,652892,-38.0
10,652893,-23.0
10,652894,-7.0
10,652895,-3.0
10,652896,-18.0
10,652897,-40.0
10,652898,-53.0
10,652899,-58.0
10,652900,-60.0
10,652901,-58.0
10,652902,-65.0
10,652903,-72.0
10,652904,18.0
10,652905,208.0
10,652906,271.0
10,652907,108.0
10,652908,-50.0
10,652909,-73.0
10,652910,-45.0
10,652911,-40.0
10,652912,-36.0
10,652913,-32.0
10,652914,-27.0
10,652915,-22.0
10,652916,-17.0
10,652917,-11.0
10,652918,-5.0
10,652919,2.0
10,652920,12.0
10,652921,22.0
10,652922,33.0
10,652923,45.0
10,652924,53.0
10,652925,65.0
10,652926,73.0
10,652927,82.0
10,652928,87.0
10,652929,83.0
10,652930,68.0
10,652931,43.0
10,652932,16.0
10,652933,-5.0
10,652934,-25.0
10,652935,-37.0
10,652936,-45.0
10,652937,-48.0
10,652938,-51.0
10,652939,-52.0
10,652940,-53.0
10,652941,-53.0
10,652942,-50.0
10,652943,-41.0
10,652944,-28.0
10,652945,-16.0
10,652946,-6.0
10,652947,-7.0
10,652948,-25.0
10,652949,-45.0
10,652950,-56.0
10,652951,-60.0
10,652952,-60.0
10,652953,-61.0
10,652954,-73.0
10,652955,-46.0
10,652956,116.0
10,652957,295.0
10,652958,236.0
10,652959,37.0
10,652960,-61.0
10,652961,-48.0
10,652962,-35.0
10,652963,-32.0
10,652964,-31.0
10,652965,-27.0
10,652966,-20.0
10,652967,-13.0
10,652968,-7.0
10,652969,-2.0
10,652970,7.0
10,652971,16.0
10,652972,25.0
10,652973,32.0
10,652974,41.0
10,652975,52.0
10,652976,60.0
10,652977,68.0
10,652978,77.0
10,652979,83.0
10,652980,87.0
10,652981,78.0
10,652982,60.0
10,652983,35.0
10,652984,7.0
10,652985,-13.0
10,652986,-31.0
10,652987,-42.0
10,652988,-48.0
10,652989,-50.0
10,652990,-51.0
10,652991,-52.0
10,652992,-52.0
10,652993,-53.0
10,652994,-51.0
10,652995,-45.0
10,652996,-32.0
10,652997,-18.0
10,652998,-7.0
10,652999,-10.0
10,653000,-26.0
10,653001,-45.0
10,653002,-56.0
10,653003,-60.0
10,653004,-60.0
10,653005,-58.0
10,653006,-72.0
10,653007,-51.0
10,653008,98.0
10,653009,283.0
10,653010,231.0
10,653011,35.0
10,653012,-71.0
10,653013,-60.0
10,653014,-45.0
10,653015,-38.0
10,653016,-33.0
10,653017,-30.0
10,653018,-23.0
10,653019,-16.0
10,653020,-10.0
10,653021,-3.0
10,653022,1.0
10,653023,11.0
10,653024,21.0
10,653025,31.0
10,653026,41.0
10,653027,50.0
10,653028,60.0
10,653029,70.0
10,653030,78.0
10,653031,85.0
10,653032,87.0
10,653033,80.0
10,653034,62.0
10,653035,36.0
10,653036,8.0
10,653037,-12.0
10,653038,-30.0
10,653039,-41.0
10,653040,-50.0
10,653041,-52.0
10,653042,-53.0
10,653043,-53.0
10,653044,-55.0
10,653045,-57.0
10,653046,-57.0
10,653047,-53.0
10,653048,-45.0
10,653049,-30.0
10,653050,-13.0
10,653051,-5.0
10,653052,-13.0
10,653053,-32.0
10,653054,-48.0
10,653055,-56.0
10,653056,-58.0
10,653057,-58.0
10,653058,-62.0
10,653059,-75.0
10,653060,-20.0
10,653061,160.0
10,653062,280.0
10,653063,162.0
10,653064,-18.0
10,653065,-70.0
10,653066,-47.0
10,653067,-37.0
10,653068,-33.0
10,653069,-28.0
10,653070,-23.0
10,653071,-21.0
10,653072,-16.0
10,653073,-8.0
10,653074,0.0
10,653075,7.0
10,653076,16.0
10,653077,23.0
10,653078,32.0
10,653079,43.0
10,653080,53.0
10,653081,63.0
10,653082,71.0
10,653083,78.0
10,653084,85.0
10,653085,86.0
10,653086,73.0
10,653087,50.0
10,653088,23.0
10,653089,0.0
10,653090,-17.0
10,653091,-32.0
10,653092,-42.0
10,653093,-47.0
10,653094,-51.0
10,653095,-53.0
10,653096,-55.0
10,653097,-53.0
10,653098,-53.0
10,653099,-56.0
10,653100,-55.0
10,653101,-48.0
10,653102,-36.0
10,653103,-22.0
10,653104,-6.0
10,653105,0.0
10,653106,-10.0
10,653107,-30.0
10,653108,-45.0
10,653109,-51.0
10,653110,-53.0
10,653111,-55.0
10,653112,-63.0
10,653113,-70.0
10,653114,27.0
10,653115,220.0
10,653116,278.0
10,653117,106.0
10,653118,-46.0
10,653119,-68.0
10,653120,-42.0
10,653121,-36.0
10,653122,-32.0
10,653123,-25.0
10,653124,-20.0
10,653125,-16.0
10,653126,-11.0
10,653127,-6.0
10,653128,0.0
10,653129,8.0
10,653130,17.0
10,653131,26.0
10,653132,35.0
10,653133,46.0
10,653134,56.0
10,653135,67.0
10,653136,77.0
10,653137,85.0
10,653138,88.0
10,653139,86.0
10,653140,71.0
10,653141,47.0
10,653142,21.0
10,653143,-2.0
10,653144,-22.0
10,653145,-36.0
10,653146,-43.0
10,653147,-47.0
10,653148,-48.0
10,653149,-50.0
10,653150,-51.0
10,653151,-51.0
10,653152,-52.0
10,653153,-53.0
10,653154,-53.0
10,653155,-52.0
10,653156,-50.0
10,653157,-41.0
10,653158,-25.0
10,653159,-7.0
10,653160,0.0
10,653161,-6.0
10,653162,-25.0
10,653163,-40.0
10,653164,-47.0
10,653165,-48.0
10,653166,-48.0
10,653167,-55.0
10,653168,-70.0
10,653169,-15.0
10,653170,168.0
10,653171,292.0
10,653172,176.0
10,653173,-13.0
10,653174,-70.0
10,653175,-45.0
10,653176,-31.0
10,653177,-28.0
10,653178,-26.0
10,653179,-22.0
10,653180,-18.0
10,653181,-13.0
10,653182,-8.0
10,653183,-1.0
10,653184,5.0
10,653185,12.0
10,653186,20.0
10,653187,30.0
10,653188,40.0
10,653189,50.0
10,653190,60.0
10,653191,70.0
10,653192,80.0
10,653193,87.0
10,653194,90.0
10,653195,76.0
10,653196,53.0
10,653197,27.0
10,653198,2.0
10,653199,-16.0
10,653200,-30.0
10,653201,-38.0
10,653202,-43.0
10,653203,-46.0
10,653204,-48.0
10,653205,-48.0
10,653206,-52.0
10,653207,-52.0
10,653208,-55.0
10,653209,-56.0
10,653210,-58.0
10,653211,-55.0
10,653212,-51.0
10,653213,-48.0
10,653214,-43.0
10,653215,-32.0
10,653216,-16.0
10,653217,-2.0
10,653218,0.0
10,653219,-17.0
10,653220,-35.0
10,653221,-46.0
10,653222,-50.0
10,653223,-50.0
10,653224,-51.0
10,653225,-70.0
10,653226,-55.0
10,653227,85.0
10,653228,295.0
10,653229,252.0
10,653230,56.0
10,653231,-67.0
10,653232,-56.0
10,653233,-37.0
10,653234,-33.0
10,653235,-30.0
10,653236,-25.0
10,653237,-20.0
10,653238,-15.0
10,653239,-10.0
10,653240,-3.0
10,653241,3.0
10,653242,11.0
10,653243,21.0
10,653244,30.0
10,653245,38.0
10,653246,46.0
10,653247,58.0
10,653248,70.0
10,653249,80.0
10,653250,88.0
10,653251,91.0
10,653252,86.0
10,653253,70.0
10,653254,43.0
10,653255,16.0
10,653256,-6.0
10,653257,-22.0
10,653258,-33.0
10,653259,-38.0
10,653260,-42.0
10,653261,-45.0
10,653262,-45.0
10,653263,-42.0
10,653264,-41.0
10,653265,-42.0
10,653266,-43.0
10,653267,-45.0
10,653268,-43.0
10,653269,-43.0
10,653270,-41.0
10,653271,-38.0
10,653272,-37.0
10,653273,-33.0
10,653274,-25.0
10,653275,-11.0
10,653276,-1.0
10,653277,1.0
10,653278,-12.0
10,653279,-27.0
10,653280,-38.0
10,653281,-42.0
10,653282,-45.0
10,653283,-46.0
10,653284,-63.0
10,653285,-50.0
10,653286,88.0
10,653287,310.0
10,653288,271.0
10,653289,73.0
10,653290,-61.0
10,653291,-52.0
10,653292,-33.0
10,653293,-32.0
10,653294,-31.0
10,653295,-26.0
10,653296,-22.0
10,653297,-17.0
10,653298,-15.0
10,653299,-12.0
10,653300,-6.0
10,653301,3.0
10,653302,11.0
10,653303,18.0
10,653304,26.0
10,653305,31.0
10,653306,35.0
10,653307,43.0
10,653308,55.0
10,653309,65.0
10,653310,71.0
10,653311,65.0
10,653312,43.0
10,653313,13.0
10,653314,-17.0
10,653315,-45.0
10,653316,-66.0
10,653317,-81.0
10,653318,-93.0
10,653319,-102.0
10,653320,-105.0
10,653321,-101.0
10,653322,-98.0
10,653323,-97.0
10,653324,-101.0
10,653325,-98.0
10,653326,-96.0
10,653327,-92.0
10,653328,-95.0
10,653329,-100.0
10,653330,-93.0
10,653331,-75.0
10,653332,-58.0
10,653333,-45.0
10,653334,-25.0
10,653335,-2.0
10,653336,10.0
10,653337,11.0
10,653338,-2.0
10,653339,-12.0
10,653340,-7.0
10,653341,1.0
10,653342,-1.0
10,653343,-10.0
10,653344,-15.0
10,653345,53.0
10,653346,252.0
10,653347,381.0
10,653348,263.0
10,653349,66.0
10,653350,-2.0
10,653351,11.0
10,653352,21.0
10,653353,21.0
10,653354,20.0
10,653355,21.0
10,653356,28.0
10,653357,38.0
10,653358,47.0
10,653359,60.0
10,653360,70.0
10,653361,75.0
10,653362,82.0
10,653363,93.0
10,653364,102.0
10,653365,106.0
10,653366,110.0
10,653367,115.0
10,653368,120.0
10,653369,122.0
10,653370,121.0
10,653371,108.0
10,653372,87.0
10,653373,61.0
10,653374,35.0
10,653375,11.0
10,653376,-8.0
10,653377,-25.0
10,653378,-35.0
10,653379,-43.0
10,653380,-45.0
10,653381,-43.0
10,653382,-46.0
10,653383,-52.0
10,653384,-57.0
10,653385,-58.0
10,653386,-61.0
10,653387,-63.0
10,653388,-63.0
10,653389,-61.0
10,653390,-60.0
10,653391,-62.0
10,653392,-63.0
10,653393,-61.0
10,653394,-58.0
10,653395,-56.0
10,653396,-51.0
10,653397,-40.0
10,653398,-26.0
10,653399,-17.0
10,653400,-21.0
10,653401,-36.0
10,653402,-50.0
10,653403,-61.0
10,653404,-63.0
10,653405,-63.0
10,653406,-72.0
10,653407,-58.0
10,653408,73.0
10,653409,268.0
10,653410,307.0
10,653411,82.0
10,653412,-58.0
10,653413,-72.0
10,653414,-42.0
10,653415,-33.0
10,653416,-30.0
10,653417,-26.0
10,653418,-25.0
10,653419,-20.0
10,653420,-13.0
10,653421,-6.0
10,653422,2.0
10,653423,11.0
10,653424,20.0
10,653425,26.0
10,653426,35.0
10,653427,46.0
10,653428,58.0
10,653429,70.0
10,653430,78.0
10,653431,88.0
10,653432,95.0
10,653433,97.0
10,653434,88.0
10,653435,70.0
10,653436,42.0
10,653437,16.0
10,653438,-7.0
10,653439,-26.0
10,653440,-37.0
10,653441,-45.0
10,653442,-47.0
10,653443,-50.0
10,653444,-52.0
10,653445,-51.0
10,653446,-52.0
10,653447,-48.0
10,653448,-46.0
10,653449,-46.0
10,653450,-46.0
10,653451,-46.0
10,653452,-45.0
10,653453,-42.0
10,653454,-40.0
10,653455,-40.0
10,653456,-40.0
10,653457,-38.0
10,653458,-37.0
10,653459,-33.0
10,653460,-27.0
10,653461,-16.0
10,653462,-6.0
10,653463,-3.0
10,653464,-12.0
10,653465,-27.0
10,653466,-38.0
10,653467,-42.0
10,653468,-42.0
10,653469,-46.0
10,653470,-58.0
10,653471,-26.0
10,653472,140.0
10,653473,293.0
10,653474,216.0
10,653475,20.0
10,653476,-60.0
10,653477,-40.0
10,653478,-26.0
10,653479,-23.0
10,653480,-21.0
10,653481,-17.0
10,653482,-12.0
10,653483,-7.0
10,653484,-3.0
10,653485,1.0
10,653486,7.0
10,653487,15.0
10,653488,22.0
10,653489,33.0
10,653490,42.0
10,653491,51.0
10,653492,63.0
10,653493,73.0
10,653494,80.0
10,653495,85.0
10,653496,88.0
10,653497,85.0
10,653498,71.0
10,653499,47.0
10,653500,21.0
10,653501,-2.0
10,653502,-22.0
10,653503,-36.0
10,653504,-45.0
10,653505,-50.0
10,653506,-52.0
10,653507,-53.0
10,653508,-52.0
10,653509,-52.0
10,653510,-53.0
10,653511,-53.0
10,653512,-53.0
10,653513,-56.0
10,653514,-56.0
10,653515,-55.0
10,653516,-53.0
10,653517,-53.0
10,653518,-52.0
10,653519,-51.0
10,653520,-50.0
10,653521,-46.0
10,653522,-41.0
10,653523,-33.0
10,653524,-23.0
10,653525,-16.0
10,653526,-18.0
10,653527,-28.0
10,653528,-45.0
10,653529,-57.0
10,653530,-62.0
10,653531,-66.0
10,653532,-71.0
10,653533,-85.0
10,653534,-46.0
10,653535,128.0
10,653536,280.0
10,653537,191.0
10,653538,-7.0
10,653539,-85.0
10,653540,-62.0
10,653541,-46.0
10,653542,-40.0
10,653543,-36.0
10,653544,-33.0
10,653545,-30.0
10,653546,-23.0
10,653547,-16.0
10,653548,-8.0
10,653549,1.0
10,653550,10.0
10,653551,21.0
10,653552,33.0
10,653553,46.0
10,653554,58.0
10,653555,71.0
10,653556,85.0
10,653557,96.0
10,653558,106.0
10,653559,112.0
10,653560,110.0
10,653561,93.0
10,653562,67.0
10,653563,38.0
10,653564,13.0
10,653565,-6.0
10,653566,-22.0
10,653567,-33.0
10,653568,-40.0
10,653569,-42.0
10,653570,-43.0
10,653571,-45.0
10,653572,-45.0
10,653573,-43.0
10,653574,-42.0
10,653575,-42.0
10,653576,-41.0
10,653577,-41.0
10,653578,-38.0
10,653579,-35.0
10,653580,-31.0
10,653581,-27.0
10,653582,-26.0
10,653583,-26.0
10,653584,-26.0
10,653585,-25.0
10,653586,-18.0
10,653587,-6.0
10,653588,5.0
10,653589,10.0
10,653590,3.0
10,653591,-8.0
10,653592,-21.0
10,653593,-27.0
10,653594,-30.0
10,653595,-33.0
10,653596,-50.0
10,653597,-33.0
10,653598,106.0
10,653599,323.0
10,653600,282.0
10,653601,82.0
10,653602,-47.0
10,653603,-36.0
10,653604,-15.0
10,653605,-12.0
10,653606,-13.0
10,653607,-11.0
10,653608,-10.0
10,653609,-6.0
10,653610,-3.0
10,653611,0.0
10,653612,5.0
10,653613,11.0
10,653614,21.0
10,653615,33.0
10,653616,47.0
10,653617,58.0
10,653618,71.0
10,653619,82.0
10,653620,92.0
10,653621,101.0
10,653622,107.0
10,653623,105.0
10,653624,91.0
10,653625,67.0
10,653626,36.0
10,653627,6.0
10,653628,-16.0
10,653629,-33.0
10,653630,-46.0
10,653631,-53.0
10,653632,-60.0
10,653633,-62.0
10,653634,-62.0
10,653635,-63.0
10,653636,-63.0
10,653637,-62.0
10,653638,-61.0
10,653639,-61.0
10,653640,-60.0
10,653641,-58.0
10,653642,-56.0
10,653643,-53.0
10,653644,-51.0
10,653645,-52.0
10,653646,-48.0
10,653647,-48.0
10,653648,-46.0
10,653649,-43.0
10,653650,-42.0
10,653651,-40.0
10,653652,-35.0
10,653653,-23.0
10,653654,-11.0
10,653655,-5.0
10,653656,-8.0
10,653657,-21.0
10,653658,-33.0
10,653659,-41.0
10,653660,-42.0
10,653661,-41.0
10,653662,-48.0
10,653663,-55.0
10,653664,45.0
10,653665,250.0
10,653666,316.0
10,653667,141.0
10,653668,-33.0
10,653669,-61.0
10,653670,-37.0
10,653671,-30.0
10,653672,-28.0
10,653673,-27.0
10,653674,-23.0
10,653675,-20.0
10,653676,-16.0
10,653677,-11.0
10,653678,-5.0
10,653679,3.0
10,653680,12.0
10,653681,21.0
10,653682,31.0
10,653683,42.0
10,653684,56.0
10,653685,67.0
10,653686,78.0
10,653687,90.0
10,653688,98.0
10,653689,103.0
10,653690,97.0
10,653691,78.0
10,653692,52.0
10,653693,23.0
10,653694,-1.0
10,653695,-22.0
10,653696,-37.0
10,653697,-45.0
10,653698,-50.0
10,653699,-52.0
10,653700,-53.0
10,653701,-53.0
10,653702,-52.0
10,653703,-51.0
10,653704,-51.0
10,653705,-50.0
10,653706,-50.0
10,653707,-48.0
10,653708,-46.0
10,653709,-43.0
10,653710,-45.0
10,653711,-45.0
10,653712,-43.0
10,653713,-43.0
10,653714,-43.0
10,653715,-42.0
10,653716,-42.0
10,653717,-41.0
10,653718,-38.0
10,653719,-33.0
10,653720,-26.0
10,653721,-15.0
10,653722,-8.0
10,653723,-12.0
10,653724,-26.0
10,653725,-37.0
10,653726,-43.0
10,653727,-42.0
10,653728,-43.0
10,653729,-58.0
10,653730,-45.0
10,653731,90.0
10,653732,287.0
10,653733,323.0
10,653734,88.0
10,653735,-48.0
10,653736,-58.0
10,653737,-31.0
10,653738,-27.0
10,653739,-26.0
10,653740,-22.0
10,653741,-18.0
10,653742,-13.0
10,653743,-10.0
10,653744,-5.0
10,653745,1.0
10,653746,11.0
10,653747,20.0
10,653748,28.0
10,653749,41.0
10,653750,52.0
10,653751,65.0
10,653752,76.0
10,653753,87.0
10,653754,97.0
10,653755,105.0
10,653756,107.0
10,653757,95.0
10,653758,72.0
10,653759,46.0
10,653760,17.0
10,653761,-8.0
10,653762,-27.0
10,653763,-41.0
10,653764,-47.0
10,653765,-51.0
10,653766,-55.0
10,653767,-56.0
10,653768,-56.0
10,653769,-53.0
10,653770,-52.0
10,653771,-52.0
10,653772,-52.0
10,653773,-52.0
10,653774,-51.0
10,653775,-50.0
10,653776,-48.0
10,653777,-48.0
10,653778,-47.0
10,653779,-47.0
10,653780,-47.0
10,653781,-47.0
10,653782,-47.0
10,653783,-45.0
10,653784,-40.0
10,653785,-28.0
10,653786,-17.0
10,653787,-7.0
10,653788,-10.0
10,653789,-21.0
10,653790,-36.0
10,653791,-46.0
10,653792,-43.0
10,653793,-42.0
10,653794,-47.0
10,653795,-57.0
10,653796,17.0
10,653797,217.0
10,653798,325.0
10,653799,178.0
10,653800,-11.0
10,653801,-55.0
10,653802,-32.0
10,653803,-25.0
10,653804,-23.0
10,653805,-20.0
10,653806,-16.0
10,653807,-12.0
10,653808,-7.0
10,653809,-2.0
10,653810,2.0
10,653811,8.0
10,653812,16.0
10,653813,25.0
10,653814,37.0
10,653815,50.0
10,653816,62.0
10,653817,75.0
10,653818,86.0
10,653819,96.0
10,653820,106.0
10,653821,110.0
10,653822,103.0
10,653823,85.0
10,653824,57.0
10,653825,27.0
10,653826,0.0
10,653827,-21.0
10,653828,-35.0
10,653829,-45.0
10,653830,-51.0
10,653831,-53.0
10,653832,-53.0
10,653833,-52.0
10,653834,-53.0
10,653835,-52.0
10,653836,-52.0
10,653837,-53.0
10,653838,-53.0
10,653839,-53.0
10,653840,-52.0
10,653841,-52.0
10,653842,-51.0
10,653843,-50.0
10,653844,-48.0
10,653845,-47.0
10,653846,-48.0
10,653847,-47.0
10,653848,-45.0
10,653849,-41.0
10,653850,-32.0
10,653851,-20.0
10,653852,-11.0
10,653853,-10.0
10,653854,-21.0
10,653855,-36.0
10,653856,-46.0
10,653857,-48.0
10,653858,-47.0
10,653859,-51.0
10,653860,-65.0
10,653861,-18.0
10,653862,168.0
10,653863,321.0
10,653864,222.0
10,653865,15.0
10,653866,-61.0
10,653867,-43.0
10,653868,-30.0
10,653869,-27.0
10,653870,-23.0
10,653871,-20.0
10,653872,-16.0
10,653873,-11.0
10,653874,-6.0
10,653875,-1.0
10,653876,5.0
10,653877,12.0
10,653878,20.0
10,653879,32.0
10,653880,46.0
10,653881,58.0
10,653882,71.0
10,653883,82.0
10,653884,93.0
10,653885,103.0
10,653886,110.0
10,653887,107.0
10,653888,91.0
10,653889,65.0
10,653890,33.0
10,653891,5.0
10,653892,-17.0
10,653893,-32.0
10,653894,-42.0
10,653895,-47.0
10,653896,-52.0
10,653897,-55.0
10,653898,-55.0
10,653899,-55.0
10,653900,-55.0
10,653901,-53.0
10,653902,-53.0
10,653903,-53.0
10,653904,-53.0
10,653905,-53.0
10,653906,-52.0
10,653907,-50.0
10,653908,-50.0
10,653909,-50.0
10,653910,-48.0
10,653911,-47.0
10,653912,-47.0
10,653913,-43.0
10,653914,-37.0
10,653915,-27.0
10,653916,-15.0
10,653917,-6.0
10,653918,-8.0
10,653919,-20.0
10,653920,-35.0
10,653921,-43.0
10,653922,-46.0
10,653923,-45.0
10,653924,-51.0
10,653925,-57.0
10,653926,47.0
10,653927,257.0
10,653928,325.0
10,653929,146.0
10,653930,-30.0
10,653931,-58.0
10,653932,-33.0
10,653933,-27.0
10,653934,-26.0
10,653935,-22.0
10,653936,-18.0
10,653937,-13.0
10,653938,-7.0
10,653939,-2.0
10,653940,2.0
10,653941,7.0
10,653942,15.0
10,653943,25.0
10,653944,37.0
10,653945,51.0
10,653946,63.0
10,653947,76.0
10,653948,88.0
10,653949,98.0
10,653950,108.0
10,653951,111.0
10,653952,102.0
10,653953,81.0
10,653954,51.0
10,653955,20.0
10,653956,-5.0
10,653957,-22.0
10,653958,-36.0
10,653959,-45.0
10,653960,-50.0
10,653961,-53.0
10,653962,-55.0
10,653963,-56.0
10,653964,-55.0
10,653965,-55.0
10,653966,-56.0
10,653967,-56.0
10,653968,-57.0
10,653969,-56.0
10,653970,-55.0
10,653971,-53.0
10,653972,-51.0
10,653973,-51.0
10,653974,-50.0
10,653975,-48.0
10,653976,-46.0
10,653977,-42.0
10,653978,-33.0
10,653979,-23.0
10,653980,-13.0
10,653981,-11.0
10,653982,-18.0
10,653983,-32.0
10,653984,-45.0
10,653985,-50.0
10,653986,-51.0
10,653987,-51.0
10,653988,-61.0
10,653989,-36.0
10,653990,128.0
10,653991,335.0
10,653992,278.0
10,653993,63.0
10,653994,-60.0
10,653995,-48.0
10,653996,-32.0
10,653997,-30.0
10,653998,-27.0
10,653999,-23.0
10,654000,-20.0
10,654001,-15.0
10,654002,-10.0
10,654003,-3.0
10,654004,3.0
10,654005,10.0
10,654006,18.0
10,654007,28.0
10,654008,38.0
10,654009,51.0
10,654010,63.0
10,654011,76.0
10,654012,86.0
10,654013,95.0
10,654014,105.0
10,654015,106.0
10,654016,93.0
10,654017,68.0
10,654018,40.0
10,654019,11.0
10,654020,-12.0
10,654021,-30.0
10,654022,-42.0
10,654023,-48.0
10,654024,-52.0
10,654025,-55.0
10,654026,-56.0
10,654027,-56.0
10,654028,-56.0
10,654029,-55.0
10,654030,-56.0
10,654031,-57.0
10,654032,-58.0
10,654033,-58.0
10,654034,-55.0
10,654035,-51.0
10,654036,-50.0
10,654037,-50.0
10,654038,-48.0
10,654039,-46.0
10,654040,-41.0
10,654041,-32.0
10,654042,-20.0
10,654043,-11.0
10,654044,-10.0
10,654045,-22.0
10,654046,-37.0
10,654047,-46.0
10,654048,-48.0
10,654049,-46.0
10,654050,-50.0
10,654051,-61.0
10,654052,-10.0
10,654053,180.0
10,654054,330.0
10,654055,226.0
10,654056,17.0
10,654057,-61.0
10,654058,-43.0
10,654059,-32.0
10,654060,-27.0
10,654061,-23.0
10,654062,-21.0
10,654063,-17.0
10,654064,-13.0
10,654065,-8.0
10,654066,-1.0
10,654067,5.0
10,654068,12.0
10,654069,21.0
10,654070,32.0
10,654071,45.0
10,654072,57.0
10,654073,71.0
10,654074,82.0
10,654075,92.0
10,654076,103.0
10,654077,111.0
10,654078,108.0
10,654079,93.0
10,654080,66.0
10,654081,33.0
10,654082,5.0
10,654083,-16.0
10,654084,-33.0
10,654085,-45.0
10,654086,-52.0
10,654087,-55.0
10,654088,-56.0
10,654089,-57.0
10,654090,-56.0
10,654091,-56.0
10,654092,-56.0
10,654093,-57.0
10,654094,-60.0
10,654095,-57.0
10,654096,-57.0
10,654097,-55.0
10,654098,-53.0
10,654099,-52.0
10,654100,-50.0
10,654101,-47.0
10,654102,-41.0
10,654103,-31.0
10,654104,-20.0
10,654105,-10.0
10,654106,-12.0
10,654107,-23.0
10,654108,-38.0
10,654109,-47.0
10,654110,-48.0
10,654111,-46.0
10,654112,-53.0
10,654113,-65.0
10,654114,11.0
10,654115,215.0
10,654116,325.0
10,654117,180.0
10,654118,-13.0
10,654119,-63.0
10,654120,-41.0
10,654121,-31.0
10,654122,-27.0
10,654123,-23.0
10,654124,-21.0
10,654125,-18.0
10,654126,-13.0
10,654127,-7.0
10,654128,-1.0
10,654129,6.0
10,654130,13.0
10,654131,23.0
10,654132,33.0
10,654133,46.0
10,654134,58.0
10,654135,70.0
10,654136,80.0
10,654137,91.0
10,654138,103.0
10,654139,110.0
10,654140,106.0
10,654141,87.0
10,654142,57.0
10,654143,25.0
10,654144,-1.0
10,654145,-22.0
10,654146,-37.0
10,654147,-46.0
10,654148,-52.0
10,654149,-53.0
10,654150,-56.0
10,654151,-57.0
10,654152,-57.0
10,654153,-58.0
10,654154,-58.0
10,654155,-60.0
10,654156,-61.0
10,654157,-58.0
10,654158,-57.0
10,654159,-55.0
10,654160,-52.0
10,654161,-51.0
10,654162,-48.0
10,654163,-42.0
10,654164,-31.0
10,654165,-18.0
10,654166,-10.0
10,654167,-13.0
10,654168,-27.0
10,654169,-41.0
10,654170,-51.0
10,654171,-52.0
10,654172,-51.0
10,654173,-55.0
10,654174,-70.0
10,654175,-18.0
10,654176,171.0
10,654177,316.0
10,654178,208.0
10,654179,2.0
10,654180,-66.0
10,654181,-46.0
10,654182,-35.0
10,654183,-31.0
10,654184,-28.0
10,654185,-25.0
10,654186,-20.0
10,654187,-15.0
10,654188,-8.0
10,654189,-3.0
10,654190,3.0
10,654191,11.0
10,654192,21.0
10,654193,31.0
10,654194,42.0
10,654195,53.0
10,654196,66.0
10,654197,80.0
10,654198,92.0
10,654199,103.0
10,654200,111.0
10,654201,108.0
10,654202,93.0
10,654203,65.0
10,654204,32.0
10,654205,3.0
10,654206,-17.0
10,654207,-32.0
10,654208,-45.0
10,654209,-51.0
10,654210,-52.0
10,654211,-53.0
10,654212,-56.0
10,654213,-56.0
10,654214,-57.0
10,654215,-58.0
10,654216,-61.0
10,654217,-60.0
10,654218,-60.0
10,654219,-57.0
10,654220,-56.0
10,654221,-53.0
10,654222,-52.0
10,654223,-45.0
10,654224,-32.0
10,654225,-15.0
10,654226,-3.0
10,654227,-6.0
10,654228,-20.0
10,654229,-35.0
10,654230,-46.0
10,654231,-50.0
10,654232,-48.0
10,654233,-50.0
10,654234,-66.0
10,654235,-41.0
10,654236,122.0
10,654237,315.0
10,654238,255.0
10,654239,46.0
10,654240,-63.0
10,654241,-53.0
10,654242,-37.0
10,654243,-32.0
10,654244,-28.0
10,654245,-23.0
10,654246,-20.0
10,654247,-13.0
10,654248,-10.0
10,654249,-5.0
10,654250,2.0
10,654251,11.0
10,654252,20.0
10,654253,31.0
10,654254,42.0
10,654255,53.0
10,654256,65.0
10,654257,77.0
10,654258,88.0
10,654259,101.0
10,654260,108.0
10,654261,110.0
10,654262,95.0
10,654263,68.0
10,654264,37.0
10,654265,7.0
10,654266,-16.0
10,654267,-35.0
10,654268,-46.0
10,654269,-51.0
10,654270,-55.0
10,654271,-56.0
10,654272,-56.0
10,654273,-56.0
10,654274,-57.0
10,654275,-60.0
10,654276,-62.0
10,654277,-62.0
10,654278,-63.0
10,654279,-60.0
10,654280,-57.0
10,654281,-56.0
10,654282,-52.0
10,654283,-43.0
10,654284,-31.0
10,654285,-16.0
10,654286,-6.0
10,654287,-12.0
10,654288,-28.0
10,654289,-43.0
10,654290,-52.0
10,654291,-55.0
10,654292,-53.0
10,654293,-60.0
10,654294,-72.0
10,654295,-18.0
10,654296,173.0
10,654297,315.0
10,654298,203.0
10,654299,0.0
10,654300,-68.0
10,654301,-48.0
10,654302,-38.0
10,654303,-36.0
10,654304,-31.0
10,654305,-26.0
10,654306,-20.0
10,654307,-13.0
10,654308,-7.0
10,654309,-2.0
10,654310,3.0
10,654311,11.0
10,654312,22.0
10,654313,32.0
10,654314,41.0
10,654315,52.0
10,654316,63.0
10,654317,77.0
10,654318,88.0
10,654319,100.0
10,654320,106.0
10,654321,102.0
10,654322,85.0
10,654323,57.0
10,654324,28.0
10,654325,1.0
10,654326,-18.0
10,654327,-35.0
10,654328,-47.0
10,654329,-53.0
10,654330,-56.0
10,654331,-55.0
10,654332,-55.0
10,654333,-56.0
10,654334,-57.0
10,654335,-57.0
10,654336,-58.0
10,654337,-57.0
10,654338,-57.0
10,654339,-56.0
10,654340,-55.0
10,654341,-50.0
10,654342,-41.0
10,654343,-27.0
10,654344,-12.0
10,654345,-1.0
10,654346,-3.0
10,654347,-21.0
10,654348,-40.0
10,654349,-48.0
10,654350,-50.0
10,654351,-48.0
10,654352,-51.0
10,654353,-65.0
10,654354,-33.0
10,654355,136.0
10,654356,321.0
10,654357,256.0
10,654358,45.0
10,654359,-62.0
10,654360,-52.0
10,654361,-38.0
10,654362,-33.0
10,654363,-28.0
10,654364,-23.0
10,654365,-18.0
10,654366,-13.0
10,654367,-8.0
10,654368,-3.0
10,654369,2.0
10,654370,7.0
10,654371,17.0
10,654372,27.0
10,654373,37.0
10,654374,48.0
10,654375,58.0
10,654376,71.0
10,654377,83.0
10,654378,95.0
10,654379,105.0
10,654380,102.0
10,654381,90.0
10,654382,65.0
10,654383,37.0
10,654384,8.0
10,654385,-13.0
10,654386,-31.0
10,654387,-42.0
10,654388,-48.0
10,654389,-52.0
10,654390,-52.0
10,654391,-53.0
10,654392,-56.0
10,654393,-57.0
10,654394,-58.0
10,654395,-58.0
10,654396,-60.0
10,654397,-61.0
10,654398,-58.0
10,654399,-55.0
10,654400,-50.0
10,654401,-41.0
10,654402,-27.0
10,654403,-12.0
10,654404,-5.0
10,654405,-11.0
10,654406,-30.0
10,654407,-46.0
10,654408,-53.0
10,654409,-55.0
10,654410,-55.0
10,654411,-60.0
10,654412,-75.0
10,654413,-17.0
10,654414,176.0
10,654415,311.0
10,654416,193.0
10,654417,-6.0
10,654418,-71.0
10,654419,-48.0
10,654420,-37.0
10,654421,-33.0
10,654422,-31.0
10,654423,-25.0
10,654424,-21.0
10,654425,-17.0
10,654426,-12.0
10,654427,-6.0
10,654428,2.0
10,654429,11.0
10,654430,22.0
10,654431,31.0
10,654432,40.0
10,654433,50.0
10,654434,60.0
10,654435,71.0
10,654436,81.0
10,654437,90.0
10,654438,98.0
10,654439,96.0
10,654440,82.0
10,654441,55.0
10,654442,26.0
10,654443,1.0
10,654444,-20.0
10,654445,-35.0
10,654446,-42.0
10,654447,-48.0
10,654448,-52.0
10,654449,-55.0
10,654450,-57.0
10,654451,-58.0
10,654452,-58.0
10,654453,-61.0
10,654454,-61.0
10,654455,-60.0
10,654456,-58.0
10,654457,-57.0
10,654458,-51.0
10,654459,-43.0
10,654460,-30.0
10,654461,-15.0
10,654462,-1.0
10,654463,-5.0
10,654464,-21.0
10,654465,-40.0
10,654466,-50.0
10,654467,-52.0
10,654468,-52.0
10,654469,-55.0
10,654470,-72.0
10,654471,-51.0
10,654472,103.0
10,654473,301.0
10,654474,246.0
10,654475,42.0
10,654476,-68.0
10,654477,-56.0
10,654478,-38.0
10,654479,-33.0
10,654480,-28.0
10,654481,-25.0
10,654482,-22.0
10,654483,-17.0
10,654484,-11.0
10,654485,-3.0
10,654486,2.0
10,654487,7.0
10,654488,16.0
10,654489,25.0
10,654490,35.0
10,654491,46.0
10,654492,58.0
10,654493,71.0
10,654494,80.0
10,654495,92.0
10,654496,102.0
10,654497,105.0
10,654498,91.0
10,654499,68.0
10,654500,40.0
10,654501,12.0
10,654502,-8.0
10,654503,-26.0
10,654504,-38.0
10,654505,-46.0
10,654506,-51.0
10,654507,-53.0
10,654508,-56.0
10,654509,-57.0
10,654510,-56.0
10,654511,-56.0
10,654512,-57.0
10,654513,-60.0
10,654514,-62.0
10,654515,-63.0
10,654516,-60.0
10,654517,-51.0
10,654518,-35.0
10,654519,-16.0
10,654520,-3.0
10,654521,-7.0
10,654522,-26.0
10,654523,-42.0
10,654524,-51.0
10,654525,-52.0
10,654526,-51.0
10,654527,-56.0
10,654528,-67.0
10,654529,-10.0
10,654530,182.0
10,654531,317.0
10,654532,198.0
10,654533,-3.0
10,654534,-66.0
10,654535,-43.0
10,654536,-32.0
10,654537,-26.0
10,654538,-22.0
10,654539,-20.0
10,654540,-16.0
10,654541,-10.0
10,654542,-3.0
10,654543,0.0
10,654544,5.0
10,654545,12.0
10,654546,22.0
10,654547,32.0
10,654548,45.0
10,654549,53.0
10,654550,63.0
10,654551,73.0
10,654552,86.0
10,654553,98.0
10,654554,106.0
10,654555,102.0
10,654556,86.0
10,654557,61.0
10,654558,31.0
10,654559,2.0
10,654560,-15.0
10,654561,-28.0
10,654562,-41.0
10,654563,-46.0
10,654564,-47.0
10,654565,-50.0
10,654566,-55.0
10,654567,-57.0
10,654568,-57.0
10,654569,-57.0
10,654570,-57.0
10,654571,-57.0
10,654572,-53.0
10,654573,-46.0
10,654574,-33.0
10,654575,-17.0
10,654576,-3.0
10,654577,-1.0
10,654578,-16.0
10,654579,-33.0
10,654580,-46.0
10,654581,-50.0
10,654582,-50.0
10,654583,-53.0
10,654584,-68.0
10,654585,-78.0
10,654586,46.0
10,654587,236.0
10,654588,277.0
10,654589,63.0
10,654590,-80.0
10,654591,-68.0
10,654592,-46.0
10,654593,-40.0
10,654594,-36.0
10,654595,-33.0
10,654596,-28.0
10,654597,-22.0
10,654598,-17.0
10,654599,-11.0
10,654600,-5.0
10,654601,3.0
10,654602,10.0
10,654603,21.0
10,654604,32.0
10,654605,42.0
10,654606,51.0
10,654607,60.0
10,654608,68.0
10,654609,77.0
10,654610,82.0
10,654611,85.0
10,654612,77.0
10,654613,57.0
10,654614,31.0
10,654615,6.0
10,654616,-16.0
10,654617,-32.0
10,654618,-41.0
10,654619,-47.0
10,654620,-50.0
10,654621,-51.0
10,654622,-52.0
10,654623,-53.0
10,654624,-53.0
10,654625,-53.0
10,654626,-55.0
10,654627,-56.0
10,654628,-57.0
10,654629,-56.0
10,654630,-48.0
10,654631,-37.0
10,654632,-22.0
10,654633,-11.0
10,654634,-7.0
10,654635,-22.0
10,654636,-40.0
10,654637,-52.0
10,654638,-57.0
10,654639,-57.0
10,654640,-57.0
10,654641,-68.0
10,654642,-76.0
10,654643,51.0
10,654644,263.0
10,654645,321.0
10,654646,112.0
10,654647,-51.0
10,654648,-72.0
10,654649,-47.0
10,654650,-41.0
10,654651,-36.0
10,654652,-31.0
10,654653,-26.0
10,654654,-20.0
10,654655,-12.0
10,654656,-6.0
10,654657,-1.0
10,654658,3.0
10,654659,7.0
10,654660,15.0
10,654661,25.0
10,654662,40.0
10,654663,52.0
10,654664,63.0
10,654665,73.0
10,654666,85.0
10,654667,93.0
10,654668,100.0
10,654669,93.0
10,654670,73.0
10,654671,43.0
10,654672,11.0
10,654673,-13.0
10,654674,-32.0
10,654675,-46.0
10,654676,-56.0
10,654677,-62.0
10,654678,-63.0
10,654679,-62.0
10,654680,-66.0
10,654681,-67.0
10,654682,-70.0
10,654683,-72.0
10,654684,-73.0
10,654685,-70.0
10,654686,-62.0
10,654687,-51.0
10,654688,-36.0
10,654689,-22.0
10,654690,-15.0
10,654691,-21.0
10,654692,-35.0
10,654693,-48.0
10,654694,-55.0
10,654695,-56.0
10,654696,-57.0
10,654697,-65.0
10,654698,-71.0
10,654699,41.0
10,654700,255.0
10,654701,322.0
10,654702,145.0
10,654703,-30.0
10,654704,-60.0
10,654705,-36.0
10,654706,-28.0
10,654707,-21.0
10,654708,-15.0
10,654709,-10.0
10,654710,-6.0
10,654711,-1.0
10,654712,3.0
10,654713,11.0
10,654714,16.0
10,654715,22.0
10,654716,31.0
10,654717,41.0
10,654718,52.0
10,654719,65.0
10,654720,75.0
10,654721,86.0
10,654722,98.0
10,654723,110.0
10,654724,116.0
10,654725,110.0
10,654726,91.0
10,654727,62.0
10,654728,35.0
10,654729,10.0
10,654730,-11.0
10,654731,-25.0
10,654732,-31.0
10,654733,-35.0
10,654734,-37.0
10,654735,-40.0
10,654736,-42.0
10,654737,-46.0
10,654738,-47.0
10,654739,-48.0
10,654740,-47.0
10,654741,-45.0
10,654742,-36.0
10,654743,-23.0
10,654744,-7.0
10,654745,-1.0
10,654746,-7.0
10,654747,-27.0
10,654748,-42.0
10,654749,-51.0
10,654750,-53.0
10,654751,-56.0
10,654752,-65.0
10,654753,-82.0
10,654754,-35.0
10,654755,142.0
10,654756,275.0
10,654757,168.0
10,654758,-22.0
10,654759,-86.0
10,654760,-65.0
10,654761,-52.0
10,654762,-47.0
10,654763,-45.0
10,654764,-41.0
10,654765,-35.0
10,654766,-26.0
10,654767,-18.0
10,654768,-11.0
10,654769,-3.0
10,654770,2.0
10,654771,11.0
10,654772,20.0
10,654773,27.0
10,654774,35.0
10,654775,46.0
10,654776,57.0
10,654777,66.0
10,654778,71.0
10,654779,72.0
10,654780,66.0
10,654781,48.0
10,654782,26.0
10,654783,0.0
10,654784,-23.0
10,654785,-42.0
10,654786,-57.0
10,654787,-66.0
10,654788,-71.0
10,654789,-73.0
10,654790,-75.0
10,654791,-72.0
10,654792,-71.0
10,654793,-68.0
10,654794,-66.0
10,654795,-62.0
10,654796,-58.0
10,654797,-48.0
10,654798,-32.0
10,654799,-16.0
10,654800,-3.0
10,654801,1.0
10,654802,-11.0
10,654803,-30.0
10,654804,-43.0
10,654805,-46.0
10,654806,-47.0
10,654807,-45.0
10,654808,-58.0
10,654809,-46.0
10,654810,90.0
10,654811,300.0
10,654812,346.0
10,654813,120.0
10,654814,-28.0
10,654815,-43.0
10,654816,-22.0
10,654817,-18.0
10,654818,-15.0
10,654819,-10.0
10,654820,-6.0
10,654821,-3.0
10,654822,-3.0
10,654823,-2.0
10,654824,0.0
10,654825,8.0
10,654826,22.0
10,654827,35.0
10,654828,43.0
10,654829,53.0
10,654830,65.0
10,654831,80.0
10,654832,91.0
10,654833,103.0
10,654834,113.0
10,654835,116.0
10,654836,105.0
10,654837,81.0
10,654838,53.0
10,654839,25.0
10,654840,-2.0
10,654841,-20.0
10,654842,-33.0
10,654843,-43.0
10,654844,-52.0
10,654845,-55.0
10,654846,-55.0
10,654847,-58.0
10,654848,-60.0
10,654849,-62.0
10,654850,-63.0
10,654851,-58.0
10,654852,-48.0
10,654853,-35.0
10,654854,-18.0
10,654855,-15.0
10,654856,-28.0
10,654857,-51.0
10,654858,-67.0
10,654859,-72.0
10,654860,-71.0
10,654861,-73.0
10,654862,-87.0
10,654863,-95.0
10,654864,15.0
10,654865,225.0
10,654866,290.0
10,654867,106.0
10,654868,-65.0
10,654869,-91.0
