,,timestamp
10,647958,2021-09-10 01:26:23.666
10,647959,2021-09-10 01:26:25.978
10,647960,2021-09-10 01:26:25.986
10,647961,2021-09-10 01:26:25.994
10,647962,2021-09-10 01:26:26.002
10,647963,2021-09-10 01:26:26.010
10,647964,2021-09-10 01:26:26.018
10,647965,2021-09-10 01:26:26.026
10,647966,2021-09-10 01:26:26.034
10,647967,2021-09-10 01:26:26.042
10,647968,2021-09-10 01:26:26.050
10,647969,2021-09-10 01:26:26.058
10,647970,2021-09-10 01:26:26.066
10,647971,2021-09-10 01:26:26.074
10,647972,2021-09-10 01:26:26.082
10,647973,2021-09-10 01:26:26.090
10,647974,2021-09-10 01:26:26.098
10,647975,2021-09-10 01:26:26.106
10,647976,2021-09-10 01:26:26.114
10,647977,2021-09-10 01:26:26.122
10,647978,2021-09-10 01:26:26.130
10,647979,2021-09-10 01:26:26.138
10,647980,2021-09-10 01:26:26.146
10,647981,2021-09-10 01:26:26.154
10,647982,2021-09-10 01:26:26.162
10,647983,2021-09-10 01:26:26.170
10,647984,2021-09-10 01:26:26.178
10,647985,2021-09-10 01:26:26.186
10,647986,2021-09-10 01:26:26.194
10,647987,2021-09-10 01:26:26.202
10,647988,2021-09-10 01:26:26.210
10,647989,2021-09-10 01:26:26.218
10,647990,2021-09-10 01:26:26.226
10,647991,2021-09-10 01:26:26.234
10,647992,2021-09-10 01:26:26.242
10,647993,2021-09-10 01:26:26.250
10,647994,2021-09-10 01:26:26.258
10,647995,2021-09-10 01:26:26.266
10,647996,2021-09-10 01:26:26.274
10,647997,2021-09-10 01:26:26.282
10,647998,2021-09-10 01:26:26.290
10,647999,2021-09-10 01:26:26.298
10,648000,2021-09-10 01:26:26.306
10,648001,2021-09-10 01:26:26.314
10,648002,2021-09-10 01:26:26.322
10,648003,2021-09-10 01:26:26.330
10,648004,2021-09-10 01:26:26.338
10,648005,2021-09-10 01:26:26.346
10,648006,2021-09-10 01:26:26.354
10,648007,2021-09-10 01:26:26.362
10,648008,2021-09-10 01:26:26.370
10,648009,2021-09-10 01:26:26.378
10,648010,2021-09-10 01:26:26.386
10,648011,2021-09-10 01:26:26.394
10,648012,2021-09-10 01:26:26.402
10,648013,2021-09-10 01:26:26.410
10,648014,2021-09-10 01:26:26.418
10,648015,2021-09-10 01:26:26.426
10,648016,2021-09-10 01:26:26.434
10,648017,2021-09-10 01:26:26.442
10,648018,2021-09-10 01:26:26.450
10,648019,2021-09-10 01:26:26.458
10,648020,2021-09-10 01:26:26.466
10,648021,2021-09-10 01:26:26.474
10,648022,2021-09-10 01:26:26.482
10,648023,2021-09-10 01:26:26.490
10,648024,2021-09-10 01:26:26.498
10,648025,2021-09-10 01:26:26.506
10,648026,2021-09-10 01:26:26.514
10,648027,2021-09-10 01:26:26.522
10,648028,2021-09-10 01:26:26.530
10,648029,2021-09-10 01:26:26.538
10,648030,2021-09-10 01:26:26.546
10,648031,2021-09-10 01:26:26.554
10,648032,2021-09-10 01:26:26.562
10,648033,2021-09-10 01:26:26.570
10,648034,2021-09-10 01:26:26.578
10,648035,2021-09-10 01:26:26.586
10,648036,2021-09-10 01:26:26.594
10,648037,2021-09-10 01:26:26.602
10,648038,2021-09-10 01:26:26.610
10,648039,2021-09-10 01:26:26.618
10,648040,2021-09-10 01:26:26.626
10,648041,2021-09-10 01:26:26.634
10,648042,2021-09-10 01:26:26.642
10,648043,2021-09-10 01:26:26.650
10,648044,2021-09-10 01:26:26.658
10,648045,2021-09-10 01:26:26.666
10,648046,2021-09-10 01:26:26.674
10,648047,2021-09-10 01:26:26.682
10,648048,2021-09-10 01:26:26.690
10,648049,2021-09-10 01:26:26.698
10,648050,2021-09-10 01:26:26.706
10,648051,2021-09-10 01:26:26.714
10,648052,2021-09-10 01:26:26.722
10,648053,2021-09-10 01:26:26.730
10,648054,2021-09-10 01:26:26.738
10,648055,2021-09-10 01:26:26.746
10,648056,2021-09-10 01:26:26.754
10,648057,2021-09-10 01:26:26.762
10,648058,2021-09-10 01:26:26.770
10,648059,2021-09-10 01:26:26.778
10,648060,2021-09-10 01:26:26.786
10,648061,2021-09-10 01:26:26.794
10,648062,2021-09-10 01:26:26.802
10,648063,2021-09-10 01:26:26.810
10,648064,2021-09-10 01:26:26.818
10,648065,2021-09-10 01:26:26.826
10,648066,2021-09-10 01:26:26.834
10,648067,2021-09-10 01:26:26.842
10,648068,2021-09-10 01:26:26.850
10,648069,2021-09-10 01:26:26.858
10,648070,2021-09-10 01:26:26.866
10,648071,2021-09-10 01:26:26.874
10,648072,2021-09-10 01:26:26.882
10,648073,2021-09-10 01:26:26.890
10,648074,2021-09-10 01:26:26.898
10,648075,2021-09-10 01:26:26.906
10,648076,2021-09-10 01:26:26.914
10,648077,2021-09-10 01:26:26.922
10,648078,2021-09-10 01:26:26.930
10,648079,2021-09-10 01:26:26.938
10,648080,2021-09-10 01:26:26.946
10,648081,2021-09-10 01:26:26.954
10,648082,2021-09-10 01:26:26.962
10,648083,2021-09-10 01:26:26.970
10,648084,2021-09-10 01:26:26.978
10,648085,2021-09-10 01:26:26.986
10,648086,2021-09-10 01:26:26.994
10,648087,2021-09-10 01:26:27.002
10,648088,2021-09-10 01:26:27.010
10,648089,2021-09-10 01:26:27.018
10,648090,2021-09-10 01:26:27.026
10,648091,2021-09-10 01:26:27.034
10,648092,2021-09-10 01:26:27.042
10,648093,2021-09-10 01:26:27.050
10,648094,2021-09-10 01:26:27.058
10,648095,2021-09-10 01:26:27.066
10,648096,2021-09-10 01:26:27.074
10,648097,2021-09-10 01:26:27.082
10,648098,2021-09-10 01:26:27.090
10,648099,2021-09-10 01:26:27.098
10,648100,2021-09-10 01:26:27.106
10,648101,2021-09-10 01:26:27.114
10,648102,2021-09-10 01:26:27.122
10,648103,2021-09-10 01:26:27.130
10,648104,2021-09-10 01:26:27.138
10,648105,2021-09-10 01:26:27.146
10,648106,2021-09-10 01:26:27.154
10,648107,2021-09-10 01:26:27.162
10,648108,2021-09-10 01:26:27.170
10,648109,2021-09-10 01:26:27.178
10,648110,2021-09-10 01:26:27.186
10,648111,2021-09-10 01:26:27.194
10,648112,2021-09-10 01:26:27.202
10,648113,2021-09-10 01:26:27.210
10,648114,2021-09-10 01:26:27.218
10,648115,2021-09-10 01:26:27.226
10,648116,2021-09-10 01:26:27.234
10,648117,2021-09-10 01:26:27.242
10,648118,2021-09-10 01:26:27.250
10,648119,2021-09-10 01:26:27.258
10,648120,2021-09-10 01:26:27.266
10,648121,2021-09-10 01:26:27.274
10,648122,2021-09-10 01:26:27.282
10,648123,2021-09-10 01:26:27.290
10,648124,2021-09-10 01:26:27.298
10,648125,2021-09-10 01:26:27.306
10,648126,2021-09-10 01:26:27.314
10,648127,2021-09-10 01:26:27.322
10,648128,2021-09-10 01:26:27.330
10,648129,2021-09-10 01:26:27.338
10,648130,2021-09-10 01:26:27.346
10,648131,2021-09-10 01:26:27.354
10,648132,2021-09-10 01:26:27.362
10,648133,2021-09-10 01:26:27.370
10,648134,2021-09-10 01:26:27.378
10,648135,2021-09-10 01:26:27.386
10,648136,2021-09-10 01:26:27.394
10,648137,2021-09-10 01:26:27.402
10,648138,2021-09-10 01:26:27.410
10,648139,2021-09-10 01:26:27.418
10,648140,2021-09-10 01:26:27.426
10,648141,2021-09-10 01:26:27.434
10,648142,2021-09-10 01:26:27.442
10,648143,2021-09-10 01:26:27.450
10,648144,2021-09-10 01:26:27.458
10,648145,2021-09-10 01:26:27.466
10,648146,2021-09-10 01:26:27.474
10,648147,2021-09-10 01:26:27.482
10,648148,2021-09-10 01:26:27.490
10,648149,2021-09-10 01:26:27.498
10,648150,2021-09-10 01:26:27.506
10,648151,2021-09-10 01:26:27.514
10,648152,2021-09-10 01:26:27.522
10,648153,2021-09-10 01:26:27.530
10,648154,2021-09-10 01:26:27.538
10,648155,2021-09-10 01:26:27.546
10,648156,2021-09-10 01:26:27.554
10,648157,2021-09-10 01:26:27.562
10,648158,2021-09-10 01:26:27.570
10,648159,2021-09-10 01:26:27.578
10,648160,2021-09-10 01:26:27.586
10,648161,2021-09-10 01:26:27.594
10,648162,2021-09-10 01:26:27.602
10,648163,2021-09-10 01:26:27.610
10,648164,2021-09-10 01:26:27.618
10,648165,2021-09-10 01:26:27.626
10,648166,2021-09-10 01:26:27.634
10,648167,2021-09-10 01:26:27.642
10,648168,2021-09-10 01:26:27.650
10,648169,2021-09-10 01:26:27.658
10,648170,2021-09-10 01:26:27.666
10,648171,2021-09-10 01:26:27.674
10,648172,2021-09-10 01:26:27.682
10,648173,2021-09-10 01:26:27.690
10,648174,2021-09-10 01:26:27.698
10,648175,2021-09-10 01:26:27.706
10,648176,2021-09-10 01:26:27.714
10,648177,2021-09-10 01:26:27.722
10,648178,2021-09-10 01:26:27.730
10,648179,2021-09-10 01:26:27.738
10,648180,2021-09-10 01:26:27.746
10,648181,2021-09-10 01:26:27.754
10,648182,2021-09-10 01:26:27.762
10,648183,2021-09-10 01:26:27.770
10,648184,2021-09-10 01:26:27.778
10,648185,2021-09-10 01:26:27.786
10,648186,2021-09-10 01:26:27.794
10,648187,2021-09-10 01:26:27.802
10,648188,2021-09-10 01:26:27.810
10,648189,2021-09-10 01:26:27.818
10,648190,2021-09-10 01:26:27.826
10,648191,2021-09-10 01:26:27.834
10,648192,2021-09-10 01:26:27.842
10,648193,2021-09-10 01:26:27.850
10,648194,2021-09-10 01:26:27.858
10,648195,2021-09-10 01:26:27.866
10,648196,2021-09-10 01:26:27.874
10,648197,2021-09-10 01:26:27.882
10,648198,2021-09-10 01:26:27.890
10,648199,2021-09-10 01:26:27.898
10,648200,2021-09-10 01:26:27.906
10,648201,2021-09-10 01:26:27.914
10,648202,2021-09-10 01:26:27.922
10,648203,2021-09-10 01:26:27.930
10,648204,2021-09-10 01:26:27.938
10,648205,2021-09-10 01:26:27.946
10,648206,2021-09-10 01:26:27.954
10,648207,2021-09-10 01:26:27.962
10,648208,2021-09-10 01:26:27.970
10,648209,2021-09-10 01:26:27.978
10,648210,2021-09-10 01:26:27.986
10,648211,2021-09-10 01:26:27.994
10,648212,2021-09-10 01:26:28.002
10,648213,2021-09-10 01:26:28.010
10,648214,2021-09-10 01:26:28.018
10,648215,2021-09-10 01:26:28.026
10,648216,2021-09-10 01:26:28.034
10,648217,2021-09-10 01:26:28.042
10,648218,2021-09-10 01:26:28.050
10,648219,2021-09-10 01:26:28.058
10,648220,2021-09-10 01:26:28.066
10,648221,2021-09-10 01:26:28.074
10,648222,2021-09-10 01:26:28.082
10,648223,2021-09-10 01:26:28.090
10,648224,2021-09-10 01:26:28.098
10,648225,2021-09-10 01:26:28.106
10,648226,2021-09-10 01:26:28.114
10,648227,2021-09-10 01:26:28.122
10,648228,2021-09-10 01:26:28.130
10,648229,2021-09-10 01:26:28.138
10,648230,2021-09-10 01:26:28.146
10,648231,2021-09-10 01:26:28.154
10,648232,2021-09-10 01:26:28.162
10,648233,2021-09-10 01:26:28.170
10,648234,2021-09-10 01:26:28.178
10,648235,2021-09-10 01:26:28.186
10,648236,2021-09-10 01:26:28.194
10,648237,2021-09-10 01:26:28.202
10,648238,2021-09-10 01:26:28.210
10,648239,2021-09-10 01:26:28.218
10,648240,2021-09-10 01:26:28.226
10,648241,2021-09-10 01:26:28.234
10,648242,2021-09-10 01:26:28.242
10,648243,2021-09-10 01:26:28.250
10,648244,2021-09-10 01:26:28.258
10,648245,2021-09-10 01:26:28.266
10,648246,2021-09-10 01:26:28.274
10,648247,2021-09-10 01:26:28.282
10,648248,2021-09-10 01:26:28.290
10,648249,2021-09-10 01:26:28.298
10,648250,2021-09-10 01:26:28.306
10,648251,2021-09-10 01:26:28.314
10,648252,2021-09-10 01:26:28.322
10,648253,2021-09-10 01:26:28.330
10,648254,2021-09-10 01:26:28.338
10,648255,2021-09-10 01:26:28.346
10,648256,2021-09-10 01:26:28.354
10,648257,2021-09-10 01:26:28.362
10,648258,2021-09-10 01:26:28.370
10,648259,2021-09-10 01:26:28.378
10,648260,2021-09-10 01:26:28.386
10,648261,2021-09-10 01:26:28.394
10,648262,2021-09-10 01:26:28.402
10,648263,2021-09-10 01:26:28.410
10,648264,2021-09-10 01:26:28.418
10,648265,2021-09-10 01:26:28.426
10,648266,2021-09-10 01:26:28.434
10,648267,2021-09-10 01:26:28.442
10,648268,2021-09-10 01:26:28.450
10,648269,2021-09-10 01:26:28.458
10,648270,2021-09-10 01:26:28.466
10,648271,2021-09-10 01:26:28.474
10,648272,2021-09-10 01:26:28.482
10,648273,2021-09-10 01:26:28.490
10,648274,2021-09-10 01:26:28.498
10,648275,2021-09-10 01:26:28.506
10,648276,2021-09-10 01:26:28.514
10,648277,2021-09-10 01:26:28.522
10,648278,2021-09-10 01:26:28.530
10,648279,2021-09-10 01:26:28.538
10,648280,2021-09-10 01:26:28.546
10,648281,2021-09-10 01:26:28.554
10,648282,2021-09-10 01:26:28.562
10,648283,2021-09-10 01:26:28.570
10,648284,2021-09-10 01:26:28.578
10,648285,2021-09-10 01:26:28.586
10,648286,2021-09-10 01:26:28.594
10,648287,2021-09-10 01:26:28.602
10,648288,2021-09-10 01:26:28.610
10,648289,2021-09-10 01:26:28.618
10,648290,2021-09-10 01:26:28.626
10,648291,2021-09-10 01:26:28.634
10,648292,2021-09-10 01:26:28.642
10,648293,2021-09-10 01:26:28.650
10,648294,2021-09-10 01:26:28.658
10,648295,2021-09-10 01:26:28.666
10,648296,2021-09-10 01:26:28.674
10,648297,2021-09-10 01:26:28.682
10,648298,2021-09-10 01:26:28.690
10,648299,2021-09-10 01:26:28.698
10,648300,2021-09-10 01:26:28.706
10,648301,2021-09-10 01:26:28.714
10,648302,2021-09-10 01:26:28.722
10,648303,2021-09-10 01:26:28.730
10,648304,2021-09-10 01:26:28.738
10,648305,2021-09-10 01:26:28.746
10,648306,2021-09-10 01:26:28.754
10,648307,2021-09-10 01:26:28.762
10,648308,2021-09-10 01:26:28.770
10,648309,2021-09-10 01:26:28.778
10,648310,2021-09-10 01:26:28.786
10,648311,2021-09-10 01:26:28.794
10,648312,2021-09-10 01:26:28.802
10,648313,2021-09-10 01:26:28.810
10,648314,2021-09-10 01:26:28.818
10,648315,2021-09-10 01:26:28.826
10,648316,2021-09-10 01:26:28.834
10,648317,2021-09-10 01:26:28.842
10,648318,2021-09-10 01:26:28.850
10,648319,2021-09-10 01:26:28.858
10,648320,2021-09-10 01:26:28.866
10,648321,2021-09-10 01:26:28.874
10,648322,2021-09-10 01:26:28.882
10,648323,2021-09-10 01:26:28.890
10,648324,2021-09-10 01:26:28.898
10,648325,2021-09-10 01:26:28.906
10,648326,2021-09-10 01:26:28.914
10,648327,2021-09-10 01:26:28.922
10,648328,2021-09-10 01:26:28.930
10,648329,2021-09-10 01:26:28.938
10,648330,2021-09-10 01:26:28.946
10,648331,2021-09-10 01:26:28.954
10,648332,2021-09-10 01:26:28.962
10,648333,2021-09-10 01:26:28.970
10,648334,2021-09-10 01:26:28.978
10,648335,2021-09-10 01:26:28.986
10,648336,2021-09-10 01:26:28.994
10,648337,2021-09-10 01:26:29.002
10,648338,2021-09-10 01:26:29.010
10,648339,2021-09-10 01:26:29.018
10,648340,2021-09-10 01:26:29.026
10,648341,2021-09-10 01:26:29.034
10,648342,2021-09-10 01:26:29.042
10,648343,2021-09-10 01:26:29.050
10,648344,2021-09-10 01:26:29.058
10,648345,2021-09-10 01:26:29.066
10,648346,2021-09-10 01:26:29.074
10,648347,2021-09-10 01:26:29.082
10,648348,2021-09-10 01:26:29.090
10,648349,2021-09-10 01:26:29.098
10,648350,2021-09-10 01:26:29.106
10,648351,2021-09-10 01:26:29.114
10,648352,2021-09-10 01:26:29.122
10,648353,2021-09-10 01:26:29.130
10,648354,2021-09-10 01:26:29.138
10,648355,2021-09-10 01:26:29.146
10,648356,2021-09-10 01:26:29.154
10,648357,2021-09-10 01:26:29.162
10,648358,2021-09-10 01:26:29.170
10,648359,2021-09-10 01:26:29.178
10,648360,2021-09-10 01:26:29.186
10,648361,2021-09-10 01:26:29.194
10,648362,2021-09-10 01:26:29.202
10,648363,2021-09-10 01:26:29.210
10,648364,2021-09-10 01:26:29.218
10,648365,2021-09-10 01:26:29.226
10,648366,2021-09-10 01:26:29.234
10,648367,2021-09-10 01:26:29.242
10,648368,2021-09-10 01:26:29.250
10,648369,2021-09-10 01:26:29.258
10,648370,2021-09-10 01:26:29.266
10,648371,2021-09-10 01:26:29.274
10,648372,2021-09-10 01:26:29.282
10,648373,2021-09-10 01:26:29.290
10,648374,2021-09-10 01:26:29.298
10,648375,2021-09-10 01:26:29.306
10,648376,2021-09-10 01:26:29.314
10,648377,2021-09-10 01:26:29.322
10,648378,2021-09-10 01:26:29.330
10,648379,2021-09-10 01:26:29.338
10,648380,2021-09-10 01:26:29.346
10,648381,2021-09-10 01:26:29.354
10,648382,2021-09-10 01:26:29.362
10,648383,2021-09-10 01:26:29.370
10,648384,2021-09-10 01:26:29.378
10,648385,2021-09-10 01:26:29.386
10,648386,2021-09-10 01:26:29.394
10,648387,2021-09-10 01:26:29.402
10,648388,2021-09-10 01:26:29.410
10,648389,2021-09-10 01:26:29.418
10,648390,2021-09-10 01:26:29.426
10,648391,2021-09-10 01:26:29.434
10,648392,2021-09-10 01:26:29.442
10,648393,2021-09-10 01:26:29.450
10,648394,2021-09-10 01:26:29.458
10,648395,2021-09-10 01:26:29.466
10,648396,2021-09-10 01:26:29.474
10,648397,2021-09-10 01:26:29.482
10,648398,2021-09-10 01:26:29.490
10,648399,2021-09-10 01:26:29.498
10,648400,2021-09-10 01:26:29.506
10,648401,2021-09-10 01:26:29.514
10,648402,2021-09-10 01:26:29.522
10,648403,2021-09-10 01:26:29.530
10,648404,2021-09-10 01:26:29.538
10,648405,2021-09-10 01:26:29.546
10,648406,2021-09-10 01:26:29.554
10,648407,2021-09-10 01:26:29.562
10,648408,2021-09-10 01:26:29.570
10,648409,2021-09-10 01:26:29.578
10,648410,2021-09-10 01:26:29.586
10,648411,2021-09-10 01:26:29.594
10,648412,2021-09-10 01:26:29.602
10,648413,2021-09-10 01:26:29.610
10,648414,2021-09-10 01:26:29.618
10,648415,2021-09-10 01:26:29.626
10,648416,2021-09-10 01:26:29.634
10,648417,2021-09-10 01:26:29.642
10,648418,2021-09-10 01:26:29.650
10,648419,2021-09-10 01:26:29.658
10,648420,2021-09-10 01:26:29.666
10,648421,2021-09-10 01:26:29.674
10,648422,2021-09-10 01:26:29.682
10,648423,2021-09-10 01:26:29.690
10,648424,2021-09-10 01:26:29.698
10,648425,2021-09-10 01:26:29.706
10,648426,2021-09-10 01:26:29.714
10,648427,2021-09-10 01:26:29.722
10,648428,2021-09-10 01:26:29.730
10,648429,2021-09-10 01:26:29.738
10,648430,2021-09-10 01:26:29.746
10,648431,2021-09-10 01:26:29.754
10,648432,2021-09-10 01:26:29.762
10,648433,2021-09-10 01:26:29.770
10,648434,2021-09-10 01:26:29.778
10,648435,2021-09-10 01:26:29.786
10,648436,2021-09-10 01:26:29.794
10,648437,2021-09-10 01:26:29.802
10,648438,2021-09-10 01:26:29.810
10,648439,2021-09-10 01:26:29.818
10,648440,2021-09-10 01:26:29.826
10,648441,2021-09-10 01:26:29.834
10,648442,2021-09-10 01:26:29.842
10,648443,2021-09-10 01:26:29.850
10,648444,2021-09-10 01:26:29.858
10,648445,2021-09-10 01:26:29.866
10,648446,2021-09-10 01:26:29.874
10,648447,2021-09-10 01:26:29.882
10,648448,2021-09-10 01:26:29.890
10,648449,2021-09-10 01:26:29.898
10,648450,2021-09-10 01:26:29.906
10,648451,2021-09-10 01:26:29.914
10,648452,2021-09-10 01:26:29.922
10,648453,2021-09-10 01:26:29.930
10,648454,2021-09-10 01:26:29.938
10,648455,2021-09-10 01:26:29.946
10,648456,2021-09-10 01:26:29.954
10,648457,2021-09-10 01:26:29.962
10,648458,2021-09-10 01:26:29.970
10,648459,2021-09-10 01:26:29.978
10,648460,2021-09-10 01:26:29.986
10,648461,2021-09-10 01:26:29.994
10,648462,2021-09-10 01:26:30.002
10,648463,2021-09-10 01:26:30.010
10,648464,2021-09-10 01:26:30.018
10,648465,2021-09-10 01:26:30.026
10,648466,2021-09-10 01:26:30.034
10,648467,2021-09-10 01:26:30.042
10,648468,2021-09-10 01:26:30.050
10,648469,2021-09-10 01:26:30.058
10,648470,2021-09-10 01:26:30.066
10,648471,2021-09-10 01:26:30.074
10,648472,2021-09-10 01:26:30.082
10,648473,2021-09-10 01:26:30.090
10,648474,2021-09-10 01:26:30.098
10,648475,2021-09-10 01:26:30.106
10,648476,2021-09-10 01:26:30.114
10,648477,2021-09-10 01:26:30.122
10,648478,2021-09-10 01:26:30.130
10,648479,2021-09-10 01:26:30.138
10,648480,2021-09-10 01:26:30.146
10,648481,2021-09-10 01:26:30.154
10,648482,2021-09-10 01:26:30.162
10,648483,2021-09-10 01:26:30.170
10,648484,2021-09-10 01:26:30.178
10,648485,2021-09-10 01:26:30.186
10,648486,2021-09-10 01:26:30.194
10,648487,2021-09-10 01:26:30.202
10,648488,2021-09-10 01:26:30.210
10,648489,2021-09-10 01:26:30.218
10,648490,2021-09-10 01:26:30.226
10,648491,2021-09-10 01:26:30.234
10,648492,2021-09-10 01:26:30.242
10,648493,2021-09-10 01:26:30.250
10,648494,2021-09-10 01:26:30.258
10,648495,2021-09-10 01:26:30.266
10,648496,2021-09-10 01:26:30.274
10,648497,2021-09-10 01:26:30.282
10,648498,2021-09-10 01:26:30.290
10,648499,2021-09-10 01:26:30.298
10,648500,2021-09-10 01:26:30.306
10,648501,2021-09-10 01:26:30.314
10,648502,2021-09-10 01:26:30.322
10,648503,2021-09-10 01:26:30.330
10,648504,2021-09-10 01:26:30.338
10,648505,2021-09-10 01:26:30.346
10,648506,2021-09-10 01:26:30.354
10,648507,2021-09-10 01:26:30.362
10,648508,2021-09-10 01:26:30.370
10,648509,2021-09-10 01:26:30.378
10,648510,2021-09-10 01:26:30.386
10,648511,2021-09-10 01:26:30.394
10,648512,2021-09-10 01:26:30.402
10,648513,2021-09-10 01:26:30.410
10,648514,2021-09-10 01:26:30.418
10,648515,2021-09-10 01:26:30.426
10,648516,2021-09-10 01:26:30.434
10,648517,2021-09-10 01:26:30.442
10,648518,2021-09-10 01:26:30.450
10,648519,2021-09-10 01:26:30.458
10,648520,2021-09-10 01:26:30.466
10,648521,2021-09-10 01:26:30.474
10,648522,2021-09-10 01:26:30.482
10,648523,2021-09-10 01:26:30.490
10,648524,2021-09-10 01:26:30.498
10,648525,2021-09-10 01:26:30.506
10,648526,2021-09-10 01:26:30.514
10,648527,2021-09-10 01:26:30.522
10,648528,2021-09-10 01:26:30.530
10,648529,2021-09-10 01:26:30.538
10,648530,2021-09-10 01:26:30.546
10,648531,2021-09-10 01:26:30.554
10,648532,2021-09-10 01:26:30.562
10,648533,2021-09-10 01:26:30.570
10,648534,2021-09-10 01:26:30.578
10,648535,2021-09-10 01:26:30.586
10,648536,2021-09-10 01:26:30.594
10,648537,2021-09-10 01:26:30.602
10,648538,2021-09-10 01:26:30.610
10,648539,2021-09-10 01:26:30.618
10,648540,2021-09-10 01:26:30.626
10,648541,2021-09-10 01:26:30.634
10,648542,2021-09-10 01:26:30.642
10,648543,2021-09-10 01:26:30.650
10,648544,2021-09-10 01:26:30.658
10,648545,2021-09-10 01:26:30.666
10,648546,2021-09-10 01:26:30.674
10,648547,2021-09-10 01:26:30.682
10,648548,2021-09-10 01:26:30.690
10,648549,2021-09-10 01:26:30.698
10,648550,2021-09-10 01:26:30.706
10,648551,2021-09-10 01:26:30.714
10,648552,2021-09-10 01:26:30.722
10,648553,2021-09-10 01:26:30.730
10,648554,2021-09-10 01:26:30.738
10,648555,2021-09-10 01:26:30.746
10,648556,2021-09-10 01:26:30.754
10,648557,2021-09-10 01:26:30.762
10,648558,2021-09-10 01:26:30.770
10,648559,2021-09-10 01:26:30.778
10,648560,2021-09-10 01:26:30.786
10,648561,2021-09-10 01:26:30.794
10,648562,2021-09-10 01:26:30.802
10,648563,2021-09-10 01:26:30.810
10,648564,2021-09-10 01:26:30.818
10,648565,2021-09-10 01:26:30.826
10,648566,2021-09-10 01:26:30.834
10,648567,2021-09-10 01:26:30.842
10,648568,2021-09-10 01:26:30.850
10,648569,2021-09-10 01:26:30.858
10,648570,2021-09-10 01:26:30.866
10,648571,2021-09-10 01:26:30.874
10,648572,2021-09-10 01:26:30.882
10,648573,2021-09-10 01:26:30.890
10,648574,2021-09-10 01:26:30.898
10,648575,2021-09-10 01:26:30.906
10,648576,2021-09-10 01:26:30.914
10,648577,2021-09-10 01:26:30.922
10,648578,2021-09-10 01:26:30.930
10,648579,2021-09-10 01:26:30.938
10,648580,2021-09-10 01:26:30.946
10,648581,2021-09-10 01:26:30.954
10,648582,2021-09-10 01:26:30.962
10,648583,2021-09-10 01:26:30.970
10,648584,2021-09-10 01:26:30.978
10,648585,2021-09-10 01:26:30.986
10,648586,2021-09-10 01:26:30.994
10,648587,2021-09-10 01:26:31.002
10,648588,2021-09-10 01:26:31.010
10,648589,2021-09-10 01:26:31.018
10,648590,2021-09-10 01:26:31.026
10,648591,2021-09-10 01:26:31.034
10,648592,2021-09-10 01:26:31.042
10,648593,2021-09-10 01:26:31.050
10,648594,2021-09-10 01:26:31.058
10,648595,2021-09-10 01:26:31.066
10,648596,2021-09-10 01:26:31.074
10,648597,2021-09-10 01:26:31.082
10,648598,2021-09-10 01:26:31.090
10,648599,2021-09-10 01:26:31.098
10,648600,2021-09-10 01:26:31.106
10,648601,2021-09-10 01:26:31.114
10,648602,2021-09-10 01:26:31.122
10,648603,2021-09-10 01:26:31.130
10,648604,2021-09-10 01:26:31.138
10,648605,2021-09-10 01:26:31.146
10,648606,2021-09-10 01:26:31.154
10,648607,2021-09-10 01:26:31.162
10,648608,2021-09-10 01:26:31.170
10,648609,2021-09-10 01:26:31.178
10,648610,2021-09-10 01:26:31.186
10,648611,2021-09-10 01:26:31.194
10,648612,2021-09-10 01:26:31.202
10,648613,2021-09-10 01:26:31.210
10,648614,2021-09-10 01:26:31.218
10,648615,2021-09-10 01:26:31.226
10,648616,2021-09-10 01:26:31.234
10,648617,2021-09-10 01:26:31.242
10,648618,2021-09-10 01:26:31.250
10,648619,2021-09-10 01:26:31.258
10,648620,2021-09-10 01:26:31.266
10,648621,2021-09-10 01:26:31.274
10,648622,2021-09-10 01:26:31.282
10,648623,2021-09-10 01:26:31.290
10,648624,2021-09-10 01:26:31.298
10,648625,2021-09-10 01:26:31.306
10,648626,2021-09-10 01:26:31.314
10,648627,2021-09-10 01:26:31.322
10,648628,2021-09-10 01:26:31.330
10,648629,2021-09-10 01:26:31.338
10,648630,2021-09-10 01:26:31.346
10,648631,2021-09-10 01:26:31.354
10,648632,2021-09-10 01:26:31.362
10,648633,2021-09-10 01:26:31.370
10,648634,2021-09-10 01:26:31.378
10,648635,2021-09-10 01:26:31.386
10,648636,2021-09-10 01:26:31.394
10,648637,2021-09-10 01:26:31.402
10,648638,2021-09-10 01:26:31.410
10,648639,2021-09-10 01:26:31.418
10,648640,2021-09-10 01:26:31.426
10,648641,2021-09-10 01:26:31.434
10,648642,2021-09-10 01:26:31.442
10,648643,2021-09-10 01:26:31.450
10,648644,2021-09-10 01:26:31.458
10,648645,2021-09-10 01:26:31.466
10,648646,2021-09-10 01:26:31.474
10,648647,2021-09-10 01:26:31.482
10,648648,2021-09-10 01:26:31.490
10,648649,2021-09-10 01:26:31.498
10,648650,2021-09-10 01:26:31.506
10,648651,2021-09-10 01:26:31.514
10,648652,2021-09-10 01:26:31.522
10,648653,2021-09-10 01:26:31.530
10,648654,2021-09-10 01:26:31.538
10,648655,2021-09-10 01:26:31.546
10,648656,2021-09-10 01:26:31.554
10,648657,2021-09-10 01:26:31.562
10,648658,2021-09-10 01:26:31.570
10,648659,2021-09-10 01:26:31.578
10,648660,2021-09-10 01:26:31.586
10,648661,2021-09-10 01:26:31.594
10,648662,2021-09-10 01:26:31.602
10,648663,2021-09-10 01:26:31.610
10,648664,2021-09-10 01:26:31.618
10,648665,2021-09-10 01:26:31.626
10,648666,2021-09-10 01:26:31.634
10,648667,2021-09-10 01:26:31.642
10,648668,2021-09-10 01:26:31.650
10,648669,2021-09-10 01:26:31.658
10,648670,2021-09-10 01:26:31.666
10,648671,2021-09-10 01:26:31.674
10,648672,2021-09-10 01:26:31.682
10,648673,2021-09-10 01:26:31.690
10,648674,2021-09-10 01:26:31.698
10,648675,2021-09-10 01:26:31.706
10,648676,2021-09-10 01:26:31.714
10,648677,2021-09-10 01:26:31.722
10,648678,2021-09-10 01:26:31.730
10,648679,2021-09-10 01:26:31.738
10,648680,2021-09-10 01:26:31.746
10,648681,2021-09-10 01:26:31.754
10,648682,2021-09-10 01:26:31.762
10,648683,2021-09-10 01:26:31.770
10,648684,2021-09-10 01:26:31.778
10,648685,2021-09-10 01:26:31.786
10,648686,2021-09-10 01:26:31.794
10,648687,2021-09-10 01:26:31.802
10,648688,2021-09-10 01:26:31.810
10,648689,2021-09-10 01:26:31.818
10,648690,2021-09-10 01:26:31.826
10,648691,2021-09-10 01:26:31.834
10,648692,2021-09-10 01:26:31.842
10,648693,2021-09-10 01:26:31.850
10,648694,2021-09-10 01:26:31.858
10,648695,2021-09-10 01:26:31.866
10,648696,2021-09-10 01:26:31.874
10,648697,2021-09-10 01:26:31.882
10,648698,2021-09-10 01:26:31.890
10,648699,2021-09-10 01:26:31.898
10,648700,2021-09-10 01:26:31.906
10,648701,2021-09-10 01:26:31.914
10,648702,2021-09-10 01:26:31.922
10,648703,2021-09-10 01:26:31.930
10,648704,2021-09-10 01:26:31.938
10,648705,2021-09-10 01:26:31.946
10,648706,2021-09-10 01:26:31.954
10,648707,2021-09-10 01:26:31.962
10,648708,2021-09-10 01:26:31.970
10,648709,2021-09-10 01:26:31.978
10,648710,2021-09-10 01:26:31.986
10,648711,2021-09-10 01:26:31.994
10,648712,2021-09-10 01:26:32.002
10,648713,2021-09-10 01:26:32.010
10,648714,2021-09-10 01:26:32.018
10,648715,2021-09-10 01:26:32.026
10,648716,2021-09-10 01:26:32.034
10,648717,2021-09-10 01:26:32.042
10,648718,2021-09-10 01:26:32.050
10,648719,2021-09-10 01:26:32.058
10,648720,2021-09-10 01:26:32.066
10,648721,2021-09-10 01:26:32.074
10,648722,2021-09-10 01:26:32.082
10,648723,2021-09-10 01:26:32.090
10,648724,2021-09-10 01:26:32.098
10,648725,2021-09-10 01:26:32.106
10,648726,2021-09-10 01:26:32.114
10,648727,2021-09-10 01:26:32.122
10,648728,2021-09-10 01:26:32.130
10,648729,2021-09-10 01:26:32.138
10,648730,2021-09-10 01:26:32.146
10,648731,2021-09-10 01:26:32.154
10,648732,2021-09-10 01:26:32.162
10,648733,2021-09-10 01:26:32.170
10,648734,2021-09-10 01:26:32.178
10,648735,2021-09-10 01:26:32.186
10,648736,2021-09-10 01:26:32.194
10,648737,2021-09-10 01:26:32.202
10,648738,2021-09-10 01:26:32.210
10,648739,2021-09-10 01:26:32.218
10,648740,2021-09-10 01:26:32.226
10,648741,2021-09-10 01:26:32.234
10,648742,2021-09-10 01:26:32.242
10,648743,2021-09-10 01:26:32.250
10,648744,2021-09-10 01:26:32.258
10,648745,2021-09-10 01:26:32.266
10,648746,2021-09-10 01:26:32.274
10,648747,2021-09-10 01:26:32.282
10,648748,2021-09-10 01:26:32.290
10,648749,2021-09-10 01:26:32.298
10,648750,2021-09-10 01:26:32.306
10,648751,2021-09-10 01:26:32.314
10,648752,2021-09-10 01:26:32.322
10,648753,2021-09-10 01:26:32.330
10,648754,2021-09-10 01:26:32.338
10,648755,2021-09-10 01:26:32.346
10,648756,2021-09-10 01:26:32.354
10,648757,2021-09-10 01:26:32.362
10,648758,2021-09-10 01:26:32.370
10,648759,2021-09-10 01:26:32.378
10,648760,2021-09-10 01:26:32.386
10,648761,2021-09-10 01:26:32.394
10,648762,2021-09-10 01:26:32.402
10,648763,2021-09-10 01:26:32.410
10,648764,2021-09-10 01:26:32.418
10,648765,2021-09-10 01:26:32.426
10,648766,2021-09-10 01:26:32.434
10,648767,2021-09-10 01:26:32.442
10,648768,2021-09-10 01:26:32.450
10,648769,2021-09-10 01:26:32.458
10,648770,2021-09-10 01:26:32.466
10,648771,2021-09-10 01:26:32.474
10,648772,2021-09-10 01:26:32.482
10,648773,2021-09-10 01:26:32.490
10,648774,2021-09-10 01:26:32.498
10,648775,2021-09-10 01:26:32.506
10,648776,2021-09-10 01:26:32.514
10,648777,2021-09-10 01:26:32.522
10,648778,2021-09-10 01:26:32.530
10,648779,2021-09-10 01:26:32.538
10,648780,2021-09-10 01:26:32.546
10,648781,2021-09-10 01:26:32.554
10,648782,2021-09-10 01:26:32.562
10,648783,2021-09-10 01:26:32.570
10,648784,2021-09-10 01:26:32.578
10,648785,2021-09-10 01:26:32.586
10,648786,2021-09-10 01:26:32.594
10,648787,2021-09-10 01:26:32.602
10,648788,2021-09-10 01:26:32.610
10,648789,2021-09-10 01:26:32.618
10,648790,2021-09-10 01:26:32.626
10,648791,2021-09-10 01:26:32.634
10,648792,2021-09-10 01:26:32.642
10,648793,2021-09-10 01:26:32.650
10,648794,2021-09-10 01:26:32.658
10,648795,2021-09-10 01:26:32.666
10,648796,2021-09-10 01:26:32.674
10,648797,2021-09-10 01:26:32.682
10,648798,2021-09-10 01:26:32.690
10,648799,2021-09-10 01:26:32.698
10,648800,2021-09-10 01:26:32.706
10,648801,2021-09-10 01:26:32.714
10,648802,2021-09-10 01:26:32.722
10,648803,2021-09-10 01:26:32.730
10,648804,2021-09-10 01:26:32.738
10,648805,2021-09-10 01:26:32.746
10,648806,2021-09-10 01:26:32.754
10,648807,2021-09-10 01:26:32.762
10,648808,2021-09-10 01:26:32.770
10,648809,2021-09-10 01:26:32.778
10,648810,2021-09-10 01:26:32.786
10,648811,2021-09-10 01:26:32.794
10,648812,2021-09-10 01:26:32.802
10,648813,2021-09-10 01:26:32.810
10,648814,2021-09-10 01:26:32.818
10,648815,2021-09-10 01:26:32.826
10,648816,2021-09-10 01:26:32.834
10,648817,2021-09-10 01:26:32.842
10,648818,2021-09-10 01:26:32.850
10,648819,2021-09-10 01:26:32.858
10,648820,2021-09-10 01:26:32.866
10,648821,2021-09-10 01:26:32.874
10,648822,2021-09-10 01:26:32.882
10,648823,2021-09-10 01:26:32.890
10,648824,2021-09-10 01:26:32.898
10,648825,2021-09-10 01:26:32.906
10,648826,2021-09-10 01:26:32.914
10,648827,2021-09-10 01:26:32.922
10,648828,2021-09-10 01:26:32.930
10,648829,2021-09-10 01:26:32.938
10,648830,2021-09-10 01:26:32.946
10,648831,2021-09-10 01:26:32.954
10,648832,2021-09-10 01:26:32.962
10,648833,2021-09-10 01:26:32.970
10,648834,2021-09-10 01:26:32.978
10,648835,2021-09-10 01:26:32.986
10,648836,2021-09-10 01:26:32.994
10,648837,2021-09-10 01:26:33.002
10,648838,2021-09-10 01:26:33.010
10,648839,2021-09-10 01:26:33.018
10,648840,2021-09-10 01:26:33.026
10,648841,2021-09-10 01:26:33.034
10,648842,2021-09-10 01:26:33.042
10,648843,2021-09-10 01:26:33.050
10,648844,2021-09-10 01:26:33.058
10,648845,2021-09-10 01:26:33.066
10,648846,2021-09-10 01:26:33.074
10,648847,2021-09-10 01:26:33.082
10,648848,2021-09-10 01:26:33.090
10,648849,2021-09-10 01:26:33.098
10,648850,2021-09-10 01:26:33.106
10,648851,2021-09-10 01:26:33.114
10,648852,2021-09-10 01:26:33.122
10,648853,2021-09-10 01:26:33.130
10,648854,2021-09-10 01:26:33.138
10,648855,2021-09-10 01:26:33.146
10,648856,2021-09-10 01:26:33.154
10,648857,2021-09-10 01:26:33.162
10,648858,2021-09-10 01:26:33.170
10,648859,2021-09-10 01:26:33.178
10,648860,2021-09-10 01:26:33.186
10,648861,2021-09-10 01:26:33.194
10,648862,2021-09-10 01:26:33.202
10,648863,2021-09-10 01:26:33.210
10,648864,2021-09-10 01:26:33.218
10,648865,2021-09-10 01:26:33.226
10,648866,2021-09-10 01:26:33.234
10,648867,2021-09-10 01:26:33.242
10,648868,2021-09-10 01:26:33.250
10,648869,2021-09-10 01:26:33.258
10,648870,2021-09-10 01:26:33.266
10,648871,2021-09-10 01:26:33.274
10,648872,2021-09-10 01:26:33.282
10,648873,2021-09-10 01:26:33.290
10,648874,2021-09-10 01:26:33.298
10,648875,2021-09-10 01:26:33.306
10,648876,2021-09-10 01:26:33.314
10,648877,2021-09-10 01:26:33.322
10,648878,2021-09-10 01:26:33.330
10,648879,2021-09-10 01:26:33.338
10,648880,2021-09-10 01:26:33.346
10,648881,2021-09-10 01:26:33.354
10,648882,2021-09-10 01:26:33.362
10,648883,2021-09-10 01:26:33.370
10,648884,2021-09-10 01:26:33.378
10,648885,2021-09-10 01:26:33.386
10,648886,2021-09-10 01:26:33.394
10,648887,2021-09-10 01:26:33.402
10,648888,2021-09-10 01:26:33.410
10,648889,2021-09-10 01:26:33.418
10,648890,2021-09-10 01:26:33.426
10,648891,2021-09-10 01:26:33.434
10,648892,2021-09-10 01:26:33.442
10,648893,2021-09-10 01:26:33.450
10,648894,2021-09-10 01:26:33.458
10,648895,2021-09-10 01:26:33.466
10,648896,2021-09-10 01:26:33.474
10,648897,2021-09-10 01:26:33.482
10,648898,2021-09-10 01:26:33.490
10,648899,2021-09-10 01:26:33.498
10,648900,2021-09-10 01:26:33.506
10,648901,2021-09-10 01:26:33.514
10,648902,2021-09-10 01:26:33.522
10,648903,2021-09-10 01:26:33.530
10,648904,2021-09-10 01:26:33.538
10,648905,2021-09-10 01:26:33.546
10,648906,2021-09-10 01:26:33.554
10,648907,2021-09-10 01:26:33.562
10,648908,2021-09-10 01:26:33.570
10,648909,2021-09-10 01:26:33.578
10,648910,2021-09-10 01:26:33.586
10,648911,2021-09-10 01:26:33.594
10,648912,2021-09-10 01:26:33.602
10,648913,2021-09-10 01:26:33.610
10,648914,2021-09-10 01:26:33.618
10,648915,2021-09-10 01:26:33.626
10,648916,2021-09-10 01:26:33.634
10,648917,2021-09-10 01:26:33.642
10,648918,2021-09-10 01:26:33.650
10,648919,2021-09-10 01:26:33.658
10,648920,2021-09-10 01:26:33.666
10,648921,2021-09-10 01:26:33.674
10,648922,2021-09-10 01:26:33.682
10,648923,2021-09-10 01:26:33.690
10,648924,2021-09-10 01:26:33.698
10,648925,2021-09-10 01:26:33.706
10,648926,2021-09-10 01:26:33.714
10,648927,2021-09-10 01:26:33.722
10,648928,2021-09-10 01:26:33.730
10,648929,2021-09-10 01:26:33.738
10,648930,2021-09-10 01:26:33.746
10,648931,2021-09-10 01:26:33.754
10,648932,2021-09-10 01:26:33.762
10,648933,2021-09-10 01:26:33.770
10,648934,2021-09-10 01:26:33.778
10,648935,2021-09-10 01:26:33.786
10,648936,2021-09-10 01:26:33.794
10,648937,2021-09-10 01:26:33.802
10,648938,2021-09-10 01:26:33.810
10,648939,2021-09-10 01:26:33.818
10,648940,2021-09-10 01:26:33.826
10,648941,2021-09-10 01:26:33.834
10,648942,2021-09-10 01:26:33.842
10,648943,2021-09-10 01:26:33.850
10,648944,2021-09-10 01:26:33.858
10,648945,2021-09-10 01:26:33.866
10,648946,2021-09-10 01:26:33.874
10,648947,2021-09-10 01:26:33.882
10,648948,2021-09-10 01:26:33.890
10,648949,2021-09-10 01:26:33.898
10,648950,2021-09-10 01:26:33.906
10,648951,2021-09-10 01:26:33.914
10,648952,2021-09-10 01:26:33.922
10,648953,2021-09-10 01:26:33.930
10,648954,2021-09-10 01:26:33.938
10,648955,2021-09-10 01:26:33.946
10,648956,2021-09-10 01:26:33.954
10,648957,2021-09-10 01:26:33.962
10,648958,2021-09-10 01:26:33.970
10,648959,2021-09-10 01:26:33.978
10,648960,2021-09-10 01:26:33.986
10,648961,2021-09-10 01:26:33.994
10,648962,2021-09-10 01:26:34.002
10,648963,2021-09-10 01:26:34.010
10,648964,2021-09-10 01:26:34.018
10,648965,2021-09-10 01:26:34.026
10,648966,2021-09-10 01:26:34.034
10,648967,2021-09-10 01:26:34.042
10,648968,2021-09-10 01:26:34.050
10,648969,2021-09-10 01:26:34.058
10,648970,2021-09-10 01:26:34.066
10,648971,2021-09-10 01:26:34.074
10,648972,2021-09-10 01:26:34.082
10,648973,2021-09-10 01:26:34.090
10,648974,2021-09-10 01:26:34.098
10,648975,2021-09-10 01:26:34.106
10,648976,2021-09-10 01:26:34.114
10,648977,2021-09-10 01:26:34.122
10,648978,2021-09-10 01:26:34.130
10,648979,2021-09-10 01:26:34.138
10,648980,2021-09-10 01:26:34.146
10,648981,2021-09-10 01:26:34.154
10,648982,2021-09-10 01:26:34.162
10,648983,2021-09-10 01:26:34.170
10,648984,2021-09-10 01:26:34.178
10,648985,2021-09-10 01:26:34.186
10,648986,2021-09-10 01:26:34.194
10,648987,2021-09-10 01:26:34.202
10,648988,2021-09-10 01:26:34.210
10,648989,2021-09-10 01:26:34.218
10,648990,2021-09-10 01:26:34.226
10,648991,2021-09-10 01:26:34.234
10,648992,2021-09-10 01:26:34.242
10,648993,2021-09-10 01:26:34.250
10,648994,2021-09-10 01:26:34.258
10,648995,2021-09-10 01:26:34.266
10,648996,2021-09-10 01:26:34.274
10,648997,2021-09-10 01:26:34.282
10,648998,2021-09-10 01:26:34.290
10,648999,2021-09-10 01:26:34.298
10,649000,2021-09-10 01:26:34.306
10,649001,2021-09-10 01:26:34.314
10,649002,2021-09-10 01:26:34.322
10,649003,2021-09-10 01:26:34.330
10,649004,2021-09-10 01:26:34.338
10,649005,2021-09-10 01:26:34.346
10,649006,2021-09-10 01:26:34.354
10,649007,2021-09-10 01:26:34.362
10,649008,2021-09-10 01:26:34.370
10,649009,2021-09-10 01:26:34.378
10,649010,2021-09-10 01:26:34.386
10,649011,2021-09-10 01:26:34.394
10,649012,2021-09-10 01:26:34.402
10,649013,2021-09-10 01:26:34.410
10,649014,2021-09-10 01:26:34.418
10,649015,2021-09-10 01:26:34.426
10,649016,2021-09-10 01:26:34.434
10,649017,2021-09-10 01:26:34.442
10,649018,2021-09-10 01:26:34.450
10,649019,2021-09-10 01:26:34.458
10,649020,2021-09-10 01:26:34.466
10,649021,2021-09-10 01:26:34.474
10,649022,2021-09-10 01:26:34.482
10,649023,2021-09-10 01:26:34.490
10,649024,2021-09-10 01:26:34.498
10,649025,2021-09-10 01:26:34.506
10,649026,2021-09-10 01:26:34.514
10,649027,2021-09-10 01:26:34.522
10,649028,2021-09-10 01:26:34.530
10,649029,2021-09-10 01:26:34.538
10,649030,2021-09-10 01:26:34.546
10,649031,2021-09-10 01:26:34.554
10,649032,2021-09-10 01:26:34.562
10,649033,2021-09-10 01:26:34.570
10,649034,2021-09-10 01:26:34.578
10,649035,2021-09-10 01:26:34.586
10,649036,2021-09-10 01:26:34.594
10,649037,2021-09-10 01:26:34.602
10,649038,2021-09-10 01:26:34.610
10,649039,2021-09-10 01:26:34.618
10,649040,2021-09-10 01:26:34.626
10,649041,2021-09-10 01:26:34.634
10,649042,2021-09-10 01:26:34.642
10,649043,2021-09-10 01:26:34.650
10,649044,2021-09-10 01:26:34.658
10,649045,2021-09-10 01:26:34.666
10,649046,2021-09-10 01:26:34.674
10,649047,2021-09-10 01:26:34.682
10,649048,2021-09-10 01:26:34.690
10,649049,2021-09-10 01:26:34.698
10,649050,2021-09-10 01:26:34.706
10,649051,2021-09-10 01:26:34.714
10,649052,2021-09-10 01:26:34.722
10,649053,2021-09-10 01:26:34.730
10,649054,2021-09-10 01:26:34.738
10,649055,2021-09-10 01:26:34.746
10,649056,2021-09-10 01:26:34.754
10,649057,2021-09-10 01:26:34.762
10,649058,2021-09-10 01:26:34.770
10,649059,2021-09-10 01:26:34.778
10,649060,2021-09-10 01:26:34.786
10,649061,2021-09-10 01:26:34.794
10,649062,2021-09-10 01:26:34.802
10,649063,2021-09-10 01:26:34.810
10,649064,2021-09-10 01:26:34.818
10,649065,2021-09-10 01:26:34.826
10,649066,2021-09-10 01:26:34.834
10,649067,2021-09-10 01:26:34.842
10,649068,2021-09-10 01:26:34.850
10,649069,2021-09-10 01:26:34.858
10,649070,2021-09-10 01:26:34.866
10,649071,2021-09-10 01:26:34.874
10,649072,2021-09-10 01:26:34.882
10,649073,2021-09-10 01:26:34.890
10,649074,2021-09-10 01:26:34.898
10,649075,2021-09-10 01:26:34.906
10,649076,2021-09-10 01:26:34.914
10,649077,2021-09-10 01:26:34.922
10,649078,2021-09-10 01:26:34.930
10,649079,2021-09-10 01:26:34.938
10,649080,2021-09-10 01:26:34.946
10,649081,2021-09-10 01:26:34.954
10,649082,2021-09-10 01:26:34.962
10,649083,2021-09-10 01:26:34.970
10,649084,2021-09-10 01:26:34.978
10,649085,2021-09-10 01:26:34.986
10,649086,2021-09-10 01:26:34.994
10,649087,2021-09-10 01:26:35.002
10,649088,2021-09-10 01:26:35.010
10,649089,2021-09-10 01:26:35.018
10,649090,2021-09-10 01:26:35.026
10,649091,2021-09-10 01:26:35.034
10,649092,2021-09-10 01:26:35.042
10,649093,2021-09-10 01:26:35.050
10,649094,2021-09-10 01:26:35.058
10,649095,2021-09-10 01:26:35.066
10,649096,2021-09-10 01:26:35.074
10,649097,2021-09-10 01:26:35.082
10,649098,2021-09-10 01:26:35.090
10,649099,2021-09-10 01:26:35.098
10,649100,2021-09-10 01:26:35.106
10,649101,2021-09-10 01:26:35.114
10,649102,2021-09-10 01:26:35.122
10,649103,2021-09-10 01:26:35.130
10,649104,2021-09-10 01:26:35.138
10,649105,2021-09-10 01:26:35.146
10,649106,2021-09-10 01:26:35.154
10,649107,2021-09-10 01:26:35.162
10,649108,2021-09-10 01:26:35.170
10,649109,2021-09-10 01:26:35.178
10,649110,2021-09-10 01:26:35.186
10,649111,2021-09-10 01:26:35.194
10,649112,2021-09-10 01:26:35.202
10,649113,2021-09-10 01:26:35.210
10,649114,2021-09-10 01:26:35.218
10,649115,2021-09-10 01:26:35.226
10,649116,2021-09-10 01:26:35.234
10,649117,2021-09-10 01:26:35.242
10,649118,2021-09-10 01:26:35.250
10,649119,2021-09-10 01:26:35.258
10,649120,2021-09-10 01:26:35.266
10,649121,2021-09-10 01:26:35.274
10,649122,2021-09-10 01:26:35.282
10,649123,2021-09-10 01:26:35.290
10,649124,2021-09-10 01:26:35.298
10,649125,2021-09-10 01:26:35.306
10,649126,2021-09-10 01:26:35.314
10,649127,2021-09-10 01:26:35.322
10,649128,2021-09-10 01:26:35.330
10,649129,2021-09-10 01:26:35.338
10,649130,2021-09-10 01:26:35.346
10,649131,2021-09-10 01:26:35.354
10,649132,2021-09-10 01:26:35.362
10,649133,2021-09-10 01:26:35.370
10,649134,2021-09-10 01:26:35.378
10,649135,2021-09-10 01:26:35.386
10,649136,2021-09-10 01:26:35.394
10,649137,2021-09-10 01:26:35.402
10,649138,2021-09-10 01:26:35.410
10,649139,2021-09-10 01:26:35.418
10,649140,2021-09-10 01:26:35.426
10,649141,2021-09-10 01:26:35.434
10,649142,2021-09-10 01:26:35.442
10,649143,2021-09-10 01:26:35.450
10,649144,2021-09-10 01:26:35.458
10,649145,2021-09-10 01:26:35.466
10,649146,2021-09-10 01:26:35.474
10,649147,2021-09-10 01:26:35.482
10,649148,2021-09-10 01:26:35.490
10,649149,2021-09-10 01:26:35.498
10,649150,2021-09-10 01:26:35.506
10,649151,2021-09-10 01:26:35.514
10,649152,2021-09-10 01:26:35.522
10,649153,2021-09-10 01:26:35.530
10,649154,2021-09-10 01:26:35.538
10,649155,2021-09-10 01:26:35.546
10,649156,2021-09-10 01:26:35.554
10,649157,2021-09-10 01:26:35.562
10,649158,2021-09-10 01:26:35.570
10,649159,2021-09-10 01:26:35.578
10,649160,2021-09-10 01:26:35.586
10,649161,2021-09-10 01:26:35.594
10,649162,2021-09-10 01:26:35.602
10,649163,2021-09-10 01:26:35.610
10,649164,2021-09-10 01:26:35.618
10,649165,2021-09-10 01:26:35.626
10,649166,2021-09-10 01:26:35.634
10,649167,2021-09-10 01:26:35.642
10,649168,2021-09-10 01:26:35.650
10,649169,2021-09-10 01:26:35.658
10,649170,2021-09-10 01:26:35.666
10,649171,2021-09-10 01:26:35.674
10,649172,2021-09-10 01:26:35.682
10,649173,2021-09-10 01:26:35.690
10,649174,2021-09-10 01:26:35.698
10,649175,2021-09-10 01:26:35.706
10,649176,2021-09-10 01:26:35.714
10,649177,2021-09-10 01:26:35.722
10,649178,2021-09-10 01:26:35.730
10,649179,2021-09-10 01:26:35.738
10,649180,2021-09-10 01:26:35.746
10,649181,2021-09-10 01:26:35.754
10,649182,2021-09-10 01:26:35.762
10,649183,2021-09-10 01:26:35.770
10,649184,2021-09-10 01:26:35.778
10,649185,2021-09-10 01:26:35.786
10,649186,2021-09-10 01:26:35.794
10,649187,2021-09-10 01:26:35.802
10,649188,2021-09-10 01:26:35.810
10,649189,2021-09-10 01:26:35.818
10,649190,2021-09-10 01:26:35.826
10,649191,2021-09-10 01:26:35.834
10,649192,2021-09-10 01:26:35.842
10,649193,2021-09-10 01:26:35.850
10,649194,2021-09-10 01:26:35.858
10,649195,2021-09-10 01:26:35.866
10,649196,2021-09-10 01:26:35.874
10,649197,2021-09-10 01:26:35.882
10,649198,2021-09-10 01:26:35.890
10,649199,2021-09-10 01:26:35.898
10,649200,2021-09-10 01:26:35.906
10,649201,2021-09-10 01:26:35.914
10,649202,2021-09-10 01:26:35.922
10,649203,2021-09-10 01:26:35.930
10,649204,2021-09-10 01:26:35.938
10,649205,2021-09-10 01:26:35.946
10,649206,2021-09-10 01:26:35.954
10,649207,2021-09-10 01:26:35.962
10,649208,2021-09-10 01:26:35.970
10,649209,2021-09-10 01:26:35.978
10,649210,2021-09-10 01:26:35.986
10,649211,2021-09-10 01:26:35.994
10,649212,2021-09-10 01:26:36.002
10,649213,2021-09-10 01:26:36.010
10,649214,2021-09-10 01:26:36.018
10,649215,2021-09-10 01:26:36.026
10,649216,2021-09-10 01:26:36.034
10,649217,2021-09-10 01:26:36.042
10,649218,2021-09-10 01:26:36.050
10,649219,2021-09-10 01:26:36.058
10,649220,2021-09-10 01:26:36.066
10,649221,2021-09-10 01:26:36.074
10,649222,2021-09-10 01:26:36.082
10,649223,2021-09-10 01:26:36.090
10,649224,2021-09-10 01:26:36.098
10,649225,2021-09-10 01:26:36.106
10,649226,2021-09-10 01:26:36.114
10,649227,2021-09-10 01:26:36.122
10,649228,2021-09-10 01:26:36.130
10,649229,2021-09-10 01:26:36.138
10,649230,2021-09-10 01:26:36.146
10,649231,2021-09-10 01:26:36.154
10,649232,2021-09-10 01:26:36.162
10,649233,2021-09-10 01:26:36.170
10,649234,2021-09-10 01:26:36.178
10,649235,2021-09-10 01:26:36.186
10,649236,2021-09-10 01:26:36.194
10,649237,2021-09-10 01:26:36.202
10,649238,2021-09-10 01:26:36.210
10,649239,2021-09-10 01:26:36.218
10,649240,2021-09-10 01:26:36.226
10,649241,2021-09-10 01:26:36.234
10,649242,2021-09-10 01:26:36.242
10,649243,2021-09-10 01:26:36.250
10,649244,2021-09-10 01:26:36.258
10,649245,2021-09-10 01:26:36.266
10,649246,2021-09-10 01:26:36.274
10,649247,2021-09-10 01:26:36.282
10,649248,2021-09-10 01:26:36.290
10,649249,2021-09-10 01:26:36.298
10,649250,2021-09-10 01:26:36.306
10,649251,2021-09-10 01:26:36.314
10,649252,2021-09-10 01:26:36.322
10,649253,2021-09-10 01:26:36.330
10,649254,2021-09-10 01:26:36.338
10,649255,2021-09-10 01:26:36.346
10,649256,2021-09-10 01:26:36.354
10,649257,2021-09-10 01:26:36.362
10,649258,2021-09-10 01:26:36.370
10,649259,2021-09-10 01:26:36.378
10,649260,2021-09-10 01:26:36.386
10,649261,2021-09-10 01:26:36.394
10,649262,2021-09-10 01:26:36.402
10,649263,2021-09-10 01:26:36.410
10,649264,2021-09-10 01:26:36.418
10,649265,2021-09-10 01:26:36.426
10,649266,2021-09-10 01:26:36.434
10,649267,2021-09-10 01:26:36.442
10,649268,2021-09-10 01:26:36.450
10,649269,2021-09-10 01:26:36.458
10,649270,2021-09-10 01:26:36.466
10,649271,2021-09-10 01:26:36.474
10,649272,2021-09-10 01:26:36.482
10,649273,2021-09-10 01:26:36.490
10,649274,2021-09-10 01:26:36.498
10,649275,2021-09-10 01:26:36.506
10,649276,2021-09-10 01:26:36.514
10,649277,2021-09-10 01:26:36.522
10,649278,2021-09-10 01:26:36.530
10,649279,2021-09-10 01:26:36.538
10,649280,2021-09-10 01:26:36.546
10,649281,2021-09-10 01:26:36.554
10,649282,2021-09-10 01:26:36.562
10,649283,2021-09-10 01:26:36.570
10,649284,2021-09-10 01:26:36.578
10,649285,2021-09-10 01:26:36.586
10,649286,2021-09-10 01:26:36.594
10,649287,2021-09-10 01:26:36.602
10,649288,2021-09-10 01:26:36.610
10,649289,2021-09-10 01:26:36.618
10,649290,2021-09-10 01:26:36.626
10,649291,2021-09-10 01:26:36.634
10,649292,2021-09-10 01:26:36.642
10,649293,2021-09-10 01:26:36.650
10,649294,2021-09-10 01:26:36.658
10,649295,2021-09-10 01:26:36.666
10,649296,2021-09-10 01:26:36.674
10,649297,2021-09-10 01:26:36.682
10,649298,2021-09-10 01:26:36.690
10,649299,2021-09-10 01:26:36.698
10,649300,2021-09-10 01:26:36.706
10,649301,2021-09-10 01:26:36.714
10,649302,2021-09-10 01:26:36.722
10,649303,2021-09-10 01:26:36.730
10,649304,2021-09-10 01:26:36.738
10,649305,2021-09-10 01:26:36.746
10,649306,2021-09-10 01:26:36.754
10,649307,2021-09-10 01:26:36.762
10,649308,2021-09-10 01:26:36.770
10,649309,2021-09-10 01:26:36.778
10,649310,2021-09-10 01:26:36.786
10,649311,2021-09-10 01:26:36.794
10,649312,2021-09-10 01:26:36.802
10,649313,2021-09-10 01:26:36.810
10,649314,2021-09-10 01:26:36.818
10,649315,2021-09-10 01:26:36.826
10,649316,2021-09-10 01:26:36.834
10,649317,2021-09-10 01:26:36.842
10,649318,2021-09-10 01:26:36.850
10,649319,2021-09-10 01:26:36.858
10,649320,2021-09-10 01:26:36.866
10,649321,2021-09-10 01:26:36.874
10,649322,2021-09-10 01:26:36.882
10,649323,2021-09-10 01:26:36.890
10,649324,2021-09-10 01:26:36.898
10,649325,2021-09-10 01:26:36.906
10,649326,2021-09-10 01:26:36.914
10,649327,2021-09-10 01:26:36.922
10,649328,2021-09-10 01:26:36.930
10,649329,2021-09-10 01:26:36.938
10,649330,2021-09-10 01:26:36.946
10,649331,2021-09-10 01:26:36.954
10,649332,2021-09-10 01:26:36.962
10,649333,2021-09-10 01:26:36.970
10,649334,2021-09-10 01:26:36.978
10,649335,2021-09-10 01:26:36.986
10,649336,2021-09-10 01:26:36.994
10,649337,2021-09-10 01:26:37.002
10,649338,2021-09-10 01:26:37.010
10,649339,2021-09-10 01:26:37.018
10,649340,2021-09-10 01:26:37.026
10,649341,2021-09-10 01:26:37.034
10,649342,2021-09-10 01:26:37.042
10,649343,2021-09-10 01:26:37.050
10,649344,2021-09-10 01:26:37.058
10,649345,2021-09-10 01:26:37.066
10,649346,2021-09-10 01:26:37.074
10,649347,2021-09-10 01:26:37.082
10,649348,2021-09-10 01:26:37.090
10,649349,2021-09-10 01:26:37.098
10,649350,2021-09-10 01:26:37.106
10,649351,2021-09-10 01:26:37.114
10,649352,2021-09-10 01:26:37.122
10,649353,2021-09-10 01:26:37.130
10,649354,2021-09-10 01:26:37.138
10,649355,2021-09-10 01:26:37.146
10,649356,2021-09-10 01:26:37.154
10,649357,2021-09-10 01:26:37.162
10,649358,2021-09-10 01:26:37.170
10,649359,2021-09-10 01:26:37.178
10,649360,2021-09-10 01:26:37.186
10,649361,2021-09-10 01:26:37.194
10,649362,2021-09-10 01:26:37.202
10,649363,2021-09-10 01:26:37.210
10,649364,2021-09-10 01:26:37.218
10,649365,2021-09-10 01:26:37.226
10,649366,2021-09-10 01:26:37.234
10,649367,2021-09-10 01:26:37.242
10,649368,2021-09-10 01:26:37.250
10,649369,2021-09-10 01:26:37.258
10,649370,2021-09-10 01:26:37.266
10,649371,2021-09-10 01:26:37.274
10,649372,2021-09-10 01:26:37.282
10,649373,2021-09-10 01:26:37.290
10,649374,2021-09-10 01:26:37.298
10,649375,2021-09-10 01:26:37.306
10,649376,2021-09-10 01:26:37.314
10,649377,2021-09-10 01:26:37.322
10,649378,2021-09-10 01:26:37.330
10,649379,2021-09-10 01:26:37.338
10,649380,2021-09-10 01:26:37.346
10,649381,2021-09-10 01:26:37.354
10,649382,2021-09-10 01:26:37.362
10,649383,2021-09-10 01:26:37.370
10,649384,2021-09-10 01:26:37.378
10,649385,2021-09-10 01:26:37.386
10,649386,2021-09-10 01:26:37.394
10,649387,2021-09-10 01:26:37.402
10,649388,2021-09-10 01:26:37.410
10,649389,2021-09-10 01:26:37.418
10,649390,2021-09-10 01:26:37.426
10,649391,2021-09-10 01:26:37.434
10,649392,2021-09-10 01:26:37.442
10,649393,2021-09-10 01:26:37.450
10,649394,2021-09-10 01:26:37.458
10,649395,2021-09-10 01:26:37.466
10,649396,2021-09-10 01:26:37.474
10,649397,2021-09-10 01:26:37.482
10,649398,2021-09-10 01:26:37.490
10,649399,2021-09-10 01:26:37.498
10,649400,2021-09-10 01:26:37.506
10,649401,2021-09-10 01:26:37.514
10,649402,2021-09-10 01:26:37.522
10,649403,2021-09-10 01:26:37.530
10,649404,2021-09-10 01:26:37.538
10,649405,2021-09-10 01:26:37.546
10,649406,2021-09-10 01:26:37.554
10,649407,2021-09-10 01:26:37.562
10,649408,2021-09-10 01:26:37.570
10,649409,2021-09-10 01:26:37.578
10,649410,2021-09-10 01:26:37.586
10,649411,2021-09-10 01:26:37.594
10,649412,2021-09-10 01:26:37.602
10,649413,2021-09-10 01:26:37.610
10,649414,2021-09-10 01:26:37.618
10,649415,2021-09-10 01:26:37.626
10,649416,2021-09-10 01:26:37.634
10,649417,2021-09-10 01:26:37.642
10,649418,2021-09-10 01:26:37.650
10,649419,2021-09-10 01:26:37.658
10,649420,2021-09-10 01:26:37.666
10,649421,2021-09-10 01:26:37.674
10,649422,2021-09-10 01:26:37.682
10,649423,2021-09-10 01:26:37.690
10,649424,2021-09-10 01:26:37.698
10,649425,2021-09-10 01:26:37.706
10,649426,2021-09-10 01:26:37.714
10,649427,2021-09-10 01:26:37.722
10,649428,2021-09-10 01:26:37.730
10,649429,2021-09-10 01:26:37.738
10,649430,2021-09-10 01:26:37.746
10,649431,2021-09-10 01:26:37.754
10,649432,2021-09-10 01:26:37.762
10,649433,2021-09-10 01:26:37.770
10,649434,2021-09-10 01:26:37.778
10,649435,2021-09-10 01:26:37.786
10,649436,2021-09-10 01:26:37.794
10,649437,2021-09-10 01:26:37.802
10,649438,2021-09-10 01:26:37.810
10,649439,2021-09-10 01:26:37.818
10,649440,2021-09-10 01:26:37.826
10,649441,2021-09-10 01:26:37.834
10,649442,2021-09-10 01:26:37.842
10,649443,2021-09-10 01:26:37.850
10,649444,2021-09-10 01:26:37.858
10,649445,2021-09-10 01:26:37.866
10,649446,2021-09-10 01:26:37.874
10,649447,2021-09-10 01:26:37.882
10,649448,2021-09-10 01:26:37.890
10,649449,2021-09-10 01:26:37.898
10,649450,2021-09-10 01:26:37.906
10,649451,2021-09-10 01:26:37.914
10,649452,2021-09-10 01:26:37.922
10,649453,2021-09-10 01:26:37.930
10,649454,2021-09-10 01:26:37.938
10,649455,2021-09-10 01:26:37.946
10,649456,2021-09-10 01:26:37.954
10,649457,2021-09-10 01:26:37.962
10,649458,2021-09-10 01:26:37.970
10,649459,2021-09-10 01:26:37.978
10,649460,2021-09-10 01:26:37.986
10,649461,2021-09-10 01:26:37.994
10,649462,2021-09-10 01:26:38.002
10,649463,2021-09-10 01:26:38.010
10,649464,2021-09-10 01:26:38.018
10,649465,2021-09-10 01:26:38.026
10,649466,2021-09-10 01:26:38.034
10,649467,2021-09-10 01:26:38.042
10,649468,2021-09-10 01:26:38.050
10,649469,2021-09-10 01:26:38.058
10,649470,2021-09-10 01:26:38.066
10,649471,2021-09-10 01:26:38.074
10,649472,2021-09-10 01:26:38.082
10,649473,2021-09-10 01:26:38.090
10,649474,2021-09-10 01:26:38.098
10,649475,2021-09-10 01:26:38.106
10,649476,2021-09-10 01:26:38.114
10,649477,2021-09-10 01:26:38.122
10,649478,2021-09-10 01:26:38.130
10,649479,2021-09-10 01:26:38.138
10,649480,2021-09-10 01:26:38.146
10,649481,2021-09-10 01:26:38.154
10,649482,2021-09-10 01:26:38.162
10,649483,2021-09-10 01:26:38.170
10,649484,2021-09-10 01:26:38.178
10,649485,2021-09-10 01:26:38.186
10,649486,2021-09-10 01:26:38.194
10,649487,2021-09-10 01:26:38.202
10,649488,2021-09-10 01:26:38.210
10,649489,2021-09-10 01:26:38.218
10,649490,2021-09-10 01:26:38.226
10,649491,2021-09-10 01:26:38.234
10,649492,2021-09-10 01:26:38.242
10,649493,2021-09-10 01:26:38.250
10,649494,2021-09-10 01:26:38.258
10,649495,2021-09-10 01:26:38.266
10,649496,2021-09-10 01:26:38.274
10,649497,2021-09-10 01:26:38.282
10,649498,2021-09-10 01:26:38.290
10,649499,2021-09-10 01:26:38.298
10,649500,2021-09-10 01:26:38.306
10,649501,2021-09-10 01:26:38.314
10,649502,2021-09-10 01:26:38.322
10,649503,2021-09-10 01:26:38.330
10,649504,2021-09-10 01:26:38.338
10,649505,2021-09-10 01:26:38.346
10,649506,2021-09-10 01:26:38.354
10,649507,2021-09-10 01:26:38.362
10,649508,2021-09-10 01:26:38.370
10,649509,2021-09-10 01:26:38.378
10,649510,2021-09-10 01:26:38.386
10,649511,2021-09-10 01:26:38.394
10,649512,2021-09-10 01:26:38.402
10,649513,2021-09-10 01:26:38.410
10,649514,2021-09-10 01:26:38.418
10,649515,2021-09-10 01:26:38.426
10,649516,2021-09-10 01:26:38.434
10,649517,2021-09-10 01:26:38.442
10,649518,2021-09-10 01:26:38.450
10,649519,2021-09-10 01:26:38.458
10,649520,2021-09-10 01:26:38.466
10,649521,2021-09-10 01:26:38.474
10,649522,2021-09-10 01:26:38.482
10,649523,2021-09-10 01:26:38.490
10,649524,2021-09-10 01:26:38.498
10,649525,2021-09-10 01:26:38.506
10,649526,2021-09-10 01:26:38.514
10,649527,2021-09-10 01:26:38.522
10,649528,2021-09-10 01:26:38.530
10,649529,2021-09-10 01:26:38.538
10,649530,2021-09-10 01:26:38.546
10,649531,2021-09-10 01:26:38.554
10,649532,2021-09-10 01:26:38.562
10,649533,2021-09-10 01:26:38.570
10,649534,2021-09-10 01:26:38.578
10,649535,2021-09-10 01:26:38.586
10,649536,2021-09-10 01:26:38.594
10,649537,2021-09-10 01:26:38.602
10,649538,2021-09-10 01:26:38.610
10,649539,2021-09-10 01:26:38.618
10,649540,2021-09-10 01:26:38.626
10,649541,2021-09-10 01:26:38.634
10,649542,2021-09-10 01:26:38.642
10,649543,2021-09-10 01:26:38.650
10,649544,2021-09-10 01:26:38.658
10,649545,2021-09-10 01:26:38.666
10,649546,2021-09-10 01:26:38.674
10,649547,2021-09-10 01:26:38.682
10,649548,2021-09-10 01:26:38.690
10,649549,2021-09-10 01:26:38.698
10,649550,2021-09-10 01:26:38.706
10,649551,2021-09-10 01:26:38.714
10,649552,2021-09-10 01:26:38.722
10,649553,2021-09-10 01:26:38.730
10,649554,2021-09-10 01:26:38.738
10,649555,2021-09-10 01:26:38.746
10,649556,2021-09-10 01:26:38.754
10,649557,2021-09-10 01:26:38.762
10,649558,2021-09-10 01:26:38.770
10,649559,2021-09-10 01:26:38.778
10,649560,2021-09-10 01:26:38.786
10,649561,2021-09-10 01:26:38.794
10,649562,2021-09-10 01:26:38.802
10,649563,2021-09-10 01:26:38.810
10,649564,2021-09-10 01:26:38.818
10,649565,2021-09-10 01:26:38.826
10,649566,2021-09-10 01:26:38.834
10,649567,2021-09-10 01:26:38.842
10,649568,2021-09-10 01:26:38.850
10,649569,2021-09-10 01:26:38.858
10,649570,2021-09-10 01:26:38.866
10,649571,2021-09-10 01:26:38.874
10,649572,2021-09-10 01:26:38.882
10,649573,2021-09-10 01:26:38.890
10,649574,2021-09-10 01:26:38.898
10,649575,2021-09-10 01:26:38.906
10,649576,2021-09-10 01:26:38.914
10,649577,2021-09-10 01:26:38.922
10,649578,2021-09-10 01:26:38.930
10,649579,2021-09-10 01:26:38.938
10,649580,2021-09-10 01:26:38.946
10,649581,2021-09-10 01:26:38.954
10,649582,2021-09-10 01:26:38.962
10,649583,2021-09-10 01:26:38.970
10,649584,2021-09-10 01:26:38.978
10,649585,2021-09-10 01:26:38.986
10,649586,2021-09-10 01:26:38.994
10,649587,2021-09-10 01:26:39.002
10,649588,2021-09-10 01:26:39.010
10,649589,2021-09-10 01:26:39.018
10,649590,2021-09-10 01:26:39.026
10,649591,2021-09-10 01:26:39.034
10,649592,2021-09-10 01:26:39.042
10,649593,2021-09-10 01:26:39.050
10,649594,2021-09-10 01:26:39.058
10,649595,2021-09-10 01:26:39.066
10,649596,2021-09-10 01:26:39.074
10,649597,2021-09-10 01:26:39.082
10,649598,2021-09-10 01:26:39.090
10,649599,2021-09-10 01:26:39.098
10,649600,2021-09-10 01:26:39.106
10,649601,2021-09-10 01:26:39.114
10,649602,2021-09-10 01:26:39.122
10,649603,2021-09-10 01:26:39.130
10,649604,2021-09-10 01:26:39.138
10,649605,2021-09-10 01:26:39.146
10,649606,2021-09-10 01:26:39.154
10,649607,2021-09-10 01:26:39.162
10,649608,2021-09-10 01:26:39.170
10,649609,2021-09-10 01:26:39.178
10,649610,2021-09-10 01:26:39.186
10,649611,2021-09-10 01:26:39.194
10,649612,2021-09-10 01:26:39.202
10,649613,2021-09-10 01:26:39.210
10,649614,2021-09-10 01:26:39.218
10,649615,2021-09-10 01:26:39.226
10,649616,2021-09-10 01:26:39.234
10,649617,2021-09-10 01:26:39.242
10,649618,2021-09-10 01:26:39.250
10,649619,2021-09-10 01:26:39.258
10,649620,2021-09-10 01:26:39.266
10,649621,2021-09-10 01:26:39.274
10,649622,2021-09-10 01:26:39.282
10,649623,2021-09-10 01:26:39.290
10,649624,2021-09-10 01:26:39.298
10,649625,2021-09-10 01:26:39.306
10,649626,2021-09-10 01:26:39.314
10,649627,2021-09-10 01:26:39.322
10,649628,2021-09-10 01:26:39.330
10,649629,2021-09-10 01:26:39.338
10,649630,2021-09-10 01:26:39.346
10,649631,2021-09-10 01:26:39.354
10,649632,2021-09-10 01:26:39.362
10,649633,2021-09-10 01:26:39.370
10,649634,2021-09-10 01:26:39.378
10,649635,2021-09-10 01:26:39.386
10,649636,2021-09-10 01:26:39.394
10,649637,2021-09-10 01:26:39.402
10,649638,2021-09-10 01:26:39.410
10,649639,2021-09-10 01:26:39.418
10,649640,2021-09-10 01:26:39.426
10,649641,2021-09-10 01:26:39.434
10,649642,2021-09-10 01:26:39.442
10,649643,2021-09-10 01:26:39.450
10,649644,2021-09-10 01:26:39.458
10,649645,2021-09-10 01:26:39.466
10,649646,2021-09-10 01:26:39.474
10,649647,2021-09-10 01:26:39.482
10,649648,2021-09-10 01:26:39.490
10,649649,2021-09-10 01:26:39.498
10,649650,2021-09-10 01:26:39.506
10,649651,2021-09-10 01:26:39.514
10,649652,2021-09-10 01:26:39.522
10,649653,2021-09-10 01:26:39.530
10,649654,2021-09-10 01:26:39.538
10,649655,2021-09-10 01:26:39.546
10,649656,2021-09-10 01:26:39.554
10,649657,2021-09-10 01:26:39.562
10,649658,2021-09-10 01:26:39.570
10,649659,2021-09-10 01:26:39.578
10,649660,2021-09-10 01:26:39.586
10,649661,2021-09-10 01:26:39.594
10,649662,2021-09-10 01:26:39.602
10,649663,2021-09-10 01:26:39.610
10,649664,2021-09-10 01:26:39.618
10,649665,2021-09-10 01:26:39.626
10,649666,2021-09-10 01:26:39.634
10,649667,2021-09-10 01:26:39.642
10,649668,2021-09-10 01:26:39.650
10,649669,2021-09-10 01:26:39.658
10,649670,2021-09-10 01:26:39.666
10,649671,2021-09-10 01:26:39.674
10,649672,2021-09-10 01:26:39.682
10,649673,2021-09-10 01:26:39.690
10,649674,2021-09-10 01:26:39.698
10,649675,2021-09-10 01:26:39.706
10,649676,2021-09-10 01:26:39.714
10,649677,2021-09-10 01:26:39.722
10,649678,2021-09-10 01:26:39.730
10,649679,2021-09-10 01:26:39.738
10,649680,2021-09-10 01:26:39.746
10,649681,2021-09-10 01:26:39.754
10,649682,2021-09-10 01:26:39.762
10,649683,2021-09-10 01:26:39.770
10,649684,2021-09-10 01:26:39.778
10,649685,2021-09-10 01:26:39.786
10,649686,2021-09-10 01:26:39.794
10,649687,2021-09-10 01:26:39.802
10,649688,2021-09-10 01:26:39.810
10,649689,2021-09-10 01:26:39.818
10,649690,2021-09-10 01:26:39.826
10,649691,2021-09-10 01:26:39.834
10,649692,2021-09-10 01:26:39.842
10,649693,2021-09-10 01:26:39.850
10,649694,2021-09-10 01:26:39.858
10,649695,2021-09-10 01:26:39.866
10,649696,2021-09-10 01:26:39.874
10,649697,2021-09-10 01:26:39.882
10,649698,2021-09-10 01:26:39.890
10,649699,2021-09-10 01:26:39.898
10,649700,2021-09-10 01:26:39.906
10,649701,2021-09-10 01:26:39.914
10,649702,2021-09-10 01:26:39.922
10,649703,2021-09-10 01:26:39.930
10,649704,2021-09-10 01:26:39.938
10,649705,2021-09-10 01:26:39.946
10,649706,2021-09-10 01:26:39.954
10,649707,2021-09-10 01:26:39.962
10,649708,2021-09-10 01:26:39.970
10,649709,2021-09-10 01:26:39.978
10,649710,2021-09-10 01:26:39.986
10,649711,2021-09-10 01:26:39.994
10,649712,2021-09-10 01:26:40.002
10,649713,2021-09-10 01:26:40.010
10,649714,2021-09-10 01:26:40.018
10,649715,2021-09-10 01:26:40.026
10,649716,2021-09-10 01:26:40.034
10,649717,2021-09-10 01:26:40.042
10,649718,2021-09-10 01:26:40.050
10,649719,2021-09-10 01:26:40.058
10,649720,2021-09-10 01:26:40.066
10,649721,2021-09-10 01:26:40.074
10,649722,2021-09-10 01:26:40.082
10,649723,2021-09-10 01:26:40.090
10,649724,2021-09-10 01:26:40.098
10,649725,2021-09-10 01:26:40.106
10,649726,2021-09-10 01:26:40.114
10,649727,2021-09-10 01:26:40.122
10,649728,2021-09-10 01:26:40.130
10,649729,2021-09-10 01:26:40.138
10,649730,2021-09-10 01:26:40.146
10,649731,2021-09-10 01:26:40.154
10,649732,2021-09-10 01:26:40.162
10,649733,2021-09-10 01:26:40.170
10,649734,2021-09-10 01:26:40.178
10,649735,2021-09-10 01:26:40.186
10,649736,2021-09-10 01:26:40.194
10,649737,2021-09-10 01:26:40.202
10,649738,2021-09-10 01:26:40.210
10,649739,2021-09-10 01:26:40.218
10,649740,2021-09-10 01:26:40.226
10,649741,2021-09-10 01:26:40.234
10,649742,2021-09-10 01:26:40.242
10,649743,2021-09-10 01:26:40.250
10,649744,2021-09-10 01:26:40.258
10,649745,2021-09-10 01:26:40.266
10,649746,2021-09-10 01:26:40.274
10,649747,2021-09-10 01:26:40.282
10,649748,2021-09-10 01:26:40.290
10,649749,2021-09-10 01:26:40.298
10,649750,2021-09-10 01:26:40.306
10,649751,2021-09-10 01:26:40.314
10,649752,2021-09-10 01:26:40.322
10,649753,2021-09-10 01:26:40.330
10,649754,2021-09-10 01:26:40.338
10,649755,2021-09-10 01:26:40.346
10,649756,2021-09-10 01:26:40.354
10,649757,2021-09-10 01:26:40.362
10,649758,2021-09-10 01:26:40.370
10,649759,2021-09-10 01:26:40.378
10,649760,2021-09-10 01:26:40.386
10,649761,2021-09-10 01:26:40.394
10,649762,2021-09-10 01:26:40.402
10,649763,2021-09-10 01:26:40.410
10,649764,2021-09-10 01:26:40.418
10,649765,2021-09-10 01:26:40.426
10,649766,2021-09-10 01:26:40.434
10,649767,2021-09-10 01:26:40.442
10,649768,2021-09-10 01:26:40.450
10,649769,2021-09-10 01:26:40.458
10,649770,2021-09-10 01:26:40.466
10,649771,2021-09-10 01:26:40.474
10,649772,2021-09-10 01:26:40.482
10,649773,2021-09-10 01:26:40.490
10,649774,2021-09-10 01:26:40.498
10,649775,2021-09-10 01:26:40.506
10,649776,2021-09-10 01:26:40.514
10,649777,2021-09-10 01:26:40.522
10,649778,2021-09-10 01:26:40.530
10,649779,2021-09-10 01:26:40.538
10,649780,2021-09-10 01:26:40.546
10,649781,2021-09-10 01:26:40.554
10,649782,2021-09-10 01:26:40.562
10,649783,2021-09-10 01:26:40.570
10,649784,2021-09-10 01:26:40.578
10,649785,2021-09-10 01:26:40.586
10,649786,2021-09-10 01:26:40.594
10,649787,2021-09-10 01:26:40.602
10,649788,2021-09-10 01:26:40.610
10,649789,2021-09-10 01:26:40.618
10,649790,2021-09-10 01:26:40.626
10,649791,2021-09-10 01:26:40.634
10,649792,2021-09-10 01:26:40.642
10,649793,2021-09-10 01:26:40.650
10,649794,2021-09-10 01:26:40.658
10,649795,2021-09-10 01:26:40.666
10,649796,2021-09-10 01:26:40.674
10,649797,2021-09-10 01:26:40.682
10,649798,2021-09-10 01:26:40.690
10,649799,2021-09-10 01:26:40.698
10,649800,2021-09-10 01:26:40.706
10,649801,2021-09-10 01:26:40.714
10,649802,2021-09-10 01:26:40.722
10,649803,2021-09-10 01:26:40.730
10,649804,2021-09-10 01:26:40.738
10,649805,2021-09-10 01:26:40.746
10,649806,2021-09-10 01:26:40.754
10,649807,2021-09-10 01:26:40.762
10,649808,2021-09-10 01:26:40.770
10,649809,2021-09-10 01:26:40.778
10,649810,2021-09-10 01:26:40.786
10,649811,2021-09-10 01:26:40.794
10,649812,2021-09-10 01:26:40.802
10,649813,2021-09-10 01:26:40.810
10,649814,2021-09-10 01:26:40.818
10,649815,2021-09-10 01:26:40.826
10,649816,2021-09-10 01:26:40.834
10,649817,2021-09-10 01:26:40.842
10,649818,2021-09-10 01:26:40.850
10,649819,2021-09-10 01:26:40.858
10,649820,2021-09-10 01:26:40.866
10,649821,2021-09-10 01:26:40.874
10,649822,2021-09-10 01:26:40.882
10,649823,2021-09-10 01:26:40.890
10,649824,2021-09-10 01:26:40.898
10,649825,2021-09-10 01:26:40.906
10,649826,2021-09-10 01:26:40.914
10,649827,2021-09-10 01:26:40.922
10,649828,2021-09-10 01:26:40.930
10,649829,2021-09-10 01:26:40.938
10,649830,2021-09-10 01:26:40.946
10,649831,2021-09-10 01:26:40.954
10,649832,2021-09-10 01:26:40.962
10,649833,2021-09-10 01:26:40.970
10,649834,2021-09-10 01:26:40.978
10,649835,2021-09-10 01:26:40.986
10,649836,2021-09-10 01:26:40.994
10,649837,2021-09-10 01:26:41.002
10,649838,2021-09-10 01:26:41.010
10,649839,2021-09-10 01:26:41.018
10,649840,2021-09-10 01:26:41.026
10,649841,2021-09-10 01:26:41.034
10,649842,2021-09-10 01:26:41.042
10,649843,2021-09-10 01:26:41.050
10,649844,2021-09-10 01:26:41.058
10,649845,2021-09-10 01:26:41.066
10,649846,2021-09-10 01:26:41.074
10,649847,2021-09-10 01:26:41.082
10,649848,2021-09-10 01:26:41.090
10,649849,2021-09-10 01:26:41.098
10,649850,2021-09-10 01:26:41.106
10,649851,2021-09-10 01:26:41.114
10,649852,2021-09-10 01:26:41.122
10,649853,2021-09-10 01:26:41.130
10,649854,2021-09-10 01:26:41.138
10,649855,2021-09-10 01:26:41.146
10,649856,2021-09-10 01:26:41.154
10,649857,2021-09-10 01:26:41.162
10,649858,2021-09-10 01:26:41.170
10,649859,2021-09-10 01:26:41.178
10,649860,2021-09-10 01:26:41.186
10,649861,2021-09-10 01:26:41.194
10,649862,2021-09-10 01:26:41.202
10,649863,2021-09-10 01:26:41.210
10,649864,2021-09-10 01:26:41.218
10,649865,2021-09-10 01:26:41.226
10,649866,2021-09-10 01:26:41.234
10,649867,2021-09-10 01:26:41.242
10,649868,2021-09-10 01:26:41.250
10,649869,2021-09-10 01:26:41.258
10,649870,2021-09-10 01:26:41.266
10,649871,2021-09-10 01:26:41.274
10,649872,2021-09-10 01:26:41.282
10,649873,2021-09-10 01:26:41.290
10,649874,2021-09-10 01:26:41.298
10,649875,2021-09-10 01:26:41.306
10,649876,2021-09-10 01:26:41.314
10,649877,2021-09-10 01:26:41.322
10,649878,2021-09-10 01:26:41.330
10,649879,2021-09-10 01:26:41.338
10,649880,2021-09-10 01:26:41.346
10,649881,2021-09-10 01:26:41.354
10,649882,2021-09-10 01:26:41.362
10,649883,2021-09-10 01:26:41.370
10,649884,2021-09-10 01:26:41.378
10,649885,2021-09-10 01:26:41.386
10,649886,2021-09-10 01:26:41.394
10,649887,2021-09-10 01:26:41.402
10,649888,2021-09-10 01:26:41.410
10,649889,2021-09-10 01:26:41.418
10,649890,2021-09-10 01:26:41.426
10,649891,2021-09-10 01:26:41.434
10,649892,2021-09-10 01:26:41.442
10,649893,2021-09-10 01:26:41.450
10,649894,2021-09-10 01:26:41.458
10,649895,2021-09-10 01:26:41.466
10,649896,2021-09-10 01:26:41.474
10,649897,2021-09-10 01:26:41.482
10,649898,2021-09-10 01:26:41.490
10,649899,2021-09-10 01:26:41.498
10,649900,2021-09-10 01:26:41.506
10,649901,2021-09-10 01:26:41.514
10,649902,2021-09-10 01:26:41.522
10,649903,2021-09-10 01:26:41.530
10,649904,2021-09-10 01:26:41.538
10,649905,2021-09-10 01:26:41.546
10,649906,2021-09-10 01:26:41.554
10,649907,2021-09-10 01:26:41.562
10,649908,2021-09-10 01:26:41.570
10,649909,2021-09-10 01:26:41.578
10,649910,2021-09-10 01:26:41.586
10,649911,2021-09-10 01:26:41.594
10,649912,2021-09-10 01:26:41.602
10,649913,2021-09-10 01:26:41.610
10,649914,2021-09-10 01:26:41.618
10,649915,2021-09-10 01:26:41.626
10,649916,2021-09-10 01:26:41.634
10,649917,2021-09-10 01:26:41.642
10,649918,2021-09-10 01:26:41.650
10,649919,2021-09-10 01:26:41.658
10,649920,2021-09-10 01:26:41.666
10,649921,2021-09-10 01:26:41.674
10,649922,2021-09-10 01:26:41.682
10,649923,2021-09-10 01:26:41.690
10,649924,2021-09-10 01:26:41.698
10,649925,2021-09-10 01:26:41.706
10,649926,2021-09-10 01:26:41.714
10,649927,2021-09-10 01:26:41.722
10,649928,2021-09-10 01:26:41.730
10,649929,2021-09-10 01:26:41.738
10,649930,2021-09-10 01:26:41.746
10,649931,2021-09-10 01:26:41.754
10,649932,2021-09-10 01:26:41.762
10,649933,2021-09-10 01:26:41.770
10,649934,2021-09-10 01:26:41.778
10,649935,2021-09-10 01:26:41.786
10,649936,2021-09-10 01:26:41.794
10,649937,2021-09-10 01:26:41.802
10,649938,2021-09-10 01:26:41.810
10,649939,2021-09-10 01:26:41.818
10,649940,2021-09-10 01:26:41.826
10,649941,2021-09-10 01:26:41.834
10,649942,2021-09-10 01:26:41.842
10,649943,2021-09-10 01:26:41.850
10,649944,2021-09-10 01:26:41.858
10,649945,2021-09-10 01:26:41.866
10,649946,2021-09-10 01:26:41.874
10,649947,2021-09-10 01:26:41.882
10,649948,2021-09-10 01:26:41.890
10,649949,2021-09-10 01:26:41.898
10,649950,2021-09-10 01:26:41.906
10,649951,2021-09-10 01:26:41.914
10,649952,2021-09-10 01:26:41.922
10,649953,2021-09-10 01:26:41.930
10,649954,2021-09-10 01:26:41.938
10,649955,2021-09-10 01:26:41.946
10,649956,2021-09-10 01:26:41.954
10,649957,2021-09-10 01:26:41.962
10,649958,2021-09-10 01:26:41.970
10,649959,2021-09-10 01:26:41.978
10,649960,2021-09-10 01:26:41.986
10,649961,2021-09-10 01:26:41.994
10,649962,2021-09-10 01:26:42.002
10,649963,2021-09-10 01:26:42.010
10,649964,2021-09-10 01:26:42.018
10,649965,2021-09-10 01:26:42.026
10,649966,2021-09-10 01:26:42.034
10,649967,2021-09-10 01:26:42.042
10,649968,2021-09-10 01:26:42.050
10,649969,2021-09-10 01:26:42.058
10,649970,2021-09-10 01:26:42.066
10,649971,2021-09-10 01:26:42.074
10,649972,2021-09-10 01:26:42.082
10,649973,2021-09-10 01:26:42.090
10,649974,2021-09-10 01:26:42.098
10,649975,2021-09-10 01:26:42.106
10,649976,2021-09-10 01:26:42.114
10,649977,2021-09-10 01:26:42.122
10,649978,2021-09-10 01:26:42.130
10,649979,2021-09-10 01:26:42.138
10,649980,2021-09-10 01:26:42.146
10,649981,2021-09-10 01:26:42.154
10,649982,2021-09-10 01:26:42.162
10,649983,2021-09-10 01:26:42.170
10,649984,2021-09-10 01:26:42.178
10,649985,2021-09-10 01:26:42.186
10,649986,2021-09-10 01:26:42.194
10,649987,2021-09-10 01:26:42.202
10,649988,2021-09-10 01:26:42.210
10,649989,2021-09-10 01:26:42.218
10,649990,2021-09-10 01:26:42.226
10,649991,2021-09-10 01:26:42.234
10,649992,2021-09-10 01:26:42.242
10,649993,2021-09-10 01:26:42.250
10,649994,2021-09-10 01:26:42.258
10,649995,2021-09-10 01:26:42.266
10,649996,2021-09-10 01:26:42.274
10,649997,2021-09-10 01:26:42.282
10,649998,2021-09-10 01:26:42.290
10,649999,2021-09-10 01:26:42.298
10,650000,2021-09-10 01:26:42.306
10,650001,2021-09-10 01:26:42.314
10,650002,2021-09-10 01:26:42.322
10,650003,2021-09-10 01:26:42.330
10,650004,2021-09-10 01:26:42.338
10,650005,2021-09-10 01:26:42.346
10,650006,2021-09-10 01:26:42.354
10,650007,2021-09-10 01:26:42.362
10,650008,2021-09-10 01:26:42.370
10,650009,2021-09-10 01:26:42.378
10,650010,2021-09-10 01:26:42.386
10,650011,2021-09-10 01:26:42.394
10,650012,2021-09-10 01:26:42.402
10,650013,2021-09-10 01:26:42.410
10,650014,2021-09-10 01:26:42.418
10,650015,2021-09-10 01:26:42.426
10,650016,2021-09-10 01:26:42.434
10,650017,2021-09-10 01:26:42.442
10,650018,2021-09-10 01:26:42.450
10,650019,2021-09-10 01:26:42.458
10,650020,2021-09-10 01:26:42.466
10,650021,2021-09-10 01:26:42.474
10,650022,2021-09-10 01:26:42.482
10,650023,2021-09-10 01:26:42.490
10,650024,2021-09-10 01:26:42.498
10,650025,2021-09-10 01:26:42.506
10,650026,2021-09-10 01:26:42.514
10,650027,2021-09-10 01:26:42.522
10,650028,2021-09-10 01:26:42.530
10,650029,2021-09-10 01:26:42.538
10,650030,2021-09-10 01:26:42.546
10,650031,2021-09-10 01:26:42.554
10,650032,2021-09-10 01:26:42.562
10,650033,2021-09-10 01:26:42.570
10,650034,2021-09-10 01:26:42.578
10,650035,2021-09-10 01:26:42.586
10,650036,2021-09-10 01:26:42.594
10,650037,2021-09-10 01:26:42.602
10,650038,2021-09-10 01:26:42.610
10,650039,2021-09-10 01:26:42.618
10,650040,2021-09-10 01:26:42.626
10,650041,2021-09-10 01:26:42.634
10,650042,2021-09-10 01:26:42.642
10,650043,2021-09-10 01:26:42.650
10,650044,2021-09-10 01:26:42.658
10,650045,2021-09-10 01:26:42.666
10,650046,2021-09-10 01:26:42.674
10,650047,2021-09-10 01:26:42.682
10,650048,2021-09-10 01:26:42.690
10,650049,2021-09-10 01:26:42.698
10,650050,2021-09-10 01:26:42.706
10,650051,2021-09-10 01:26:42.714
10,650052,2021-09-10 01:26:42.722
10,650053,2021-09-10 01:26:42.730
10,650054,2021-09-10 01:26:42.738
10,650055,2021-09-10 01:26:42.746
10,650056,2021-09-10 01:26:42.754
10,650057,2021-09-10 01:26:42.762
10,650058,2021-09-10 01:26:42.770
10,650059,2021-09-10 01:26:42.778
10,650060,2021-09-10 01:26:42.786
10,650061,2021-09-10 01:26:42.794
10,650062,2021-09-10 01:26:42.802
10,650063,2021-09-10 01:26:42.810
10,650064,2021-09-10 01:26:42.818
10,650065,2021-09-10 01:26:42.826
10,650066,2021-09-10 01:26:42.834
10,650067,2021-09-10 01:26:42.842
10,650068,2021-09-10 01:26:42.850
10,650069,2021-09-10 01:26:42.858
10,650070,2021-09-10 01:26:42.866
10,650071,2021-09-10 01:26:42.874
10,650072,2021-09-10 01:26:42.882
10,650073,2021-09-10 01:26:42.890
10,650074,2021-09-10 01:26:42.898
10,650075,2021-09-10 01:26:42.906
10,650076,2021-09-10 01:26:42.914
10,650077,2021-09-10 01:26:42.922
10,650078,2021-09-10 01:26:42.930
10,650079,2021-09-10 01:26:42.938
10,650080,2021-09-10 01:26:42.946
10,650081,2021-09-10 01:26:42.954
10,650082,2021-09-10 01:26:42.962
10,650083,2021-09-10 01:26:42.970
10,650084,2021-09-10 01:26:42.978
10,650085,2021-09-10 01:26:42.986
10,650086,2021-09-10 01:26:42.994
10,650087,2021-09-10 01:26:43.002
10,650088,2021-09-10 01:26:43.010
10,650089,2021-09-10 01:26:43.018
10,650090,2021-09-10 01:26:43.026
10,650091,2021-09-10 01:26:43.034
10,650092,2021-09-10 01:26:43.042
10,650093,2021-09-10 01:26:43.050
10,650094,2021-09-10 01:26:43.058
10,650095,2021-09-10 01:26:43.066
10,650096,2021-09-10 01:26:43.074
10,650097,2021-09-10 01:26:43.082
10,650098,2021-09-10 01:26:43.090
10,650099,2021-09-10 01:26:43.098
10,650100,2021-09-10 01:26:43.106
10,650101,2021-09-10 01:26:43.114
10,650102,2021-09-10 01:26:43.122
10,650103,2021-09-10 01:26:43.130
10,650104,2021-09-10 01:26:43.138
10,650105,2021-09-10 01:26:43.146
10,650106,2021-09-10 01:26:43.154
10,650107,2021-09-10 01:26:43.162
10,650108,2021-09-10 01:26:43.170
10,650109,2021-09-10 01:26:43.178
10,650110,2021-09-10 01:26:43.186
10,650111,2021-09-10 01:26:43.194
10,650112,2021-09-10 01:26:43.202
10,650113,2021-09-10 01:26:43.210
10,650114,2021-09-10 01:26:43.218
10,650115,2021-09-10 01:26:43.226
10,650116,2021-09-10 01:26:43.234
10,650117,2021-09-10 01:26:43.242
10,650118,2021-09-10 01:26:43.250
10,650119,2021-09-10 01:26:43.258
10,650120,2021-09-10 01:26:43.266
10,650121,2021-09-10 01:26:43.274
10,650122,2021-09-10 01:26:43.282
10,650123,2021-09-10 01:26:43.290
10,650124,2021-09-10 01:26:43.298
10,650125,2021-09-10 01:26:43.306
10,650126,2021-09-10 01:26:43.314
10,650127,2021-09-10 01:26:43.322
10,650128,2021-09-10 01:26:43.330
10,650129,2021-09-10 01:26:43.338
10,650130,2021-09-10 01:26:43.346
10,650131,2021-09-10 01:26:43.354
10,650132,2021-09-10 01:26:43.362
10,650133,2021-09-10 01:26:43.370
10,650134,2021-09-10 01:26:43.378
10,650135,2021-09-10 01:26:43.386
10,650136,2021-09-10 01:26:43.394
10,650137,2021-09-10 01:26:43.402
10,650138,2021-09-10 01:26:43.410
10,650139,2021-09-10 01:26:43.418
10,650140,2021-09-10 01:26:43.426
10,650141,2021-09-10 01:26:43.434
10,650142,2021-09-10 01:26:43.442
10,650143,2021-09-10 01:26:43.450
10,650144,2021-09-10 01:26:43.458
10,650145,2021-09-10 01:26:43.466
10,650146,2021-09-10 01:26:43.474
10,650147,2021-09-10 01:26:43.482
10,650148,2021-09-10 01:26:43.490
10,650149,2021-09-10 01:26:43.498
10,650150,2021-09-10 01:26:43.506
10,650151,2021-09-10 01:26:43.514
10,650152,2021-09-10 01:26:43.522
10,650153,2021-09-10 01:26:43.530
10,650154,2021-09-10 01:26:43.538
10,650155,2021-09-10 01:26:43.546
10,650156,2021-09-10 01:26:43.554
10,650157,2021-09-10 01:26:43.562
10,650158,2021-09-10 01:26:43.570
10,650159,2021-09-10 01:26:43.578
10,650160,2021-09-10 01:26:43.586
10,650161,2021-09-10 01:26:43.594
10,650162,2021-09-10 01:26:43.602
10,650163,2021-09-10 01:26:43.610
10,650164,2021-09-10 01:26:43.618
10,650165,2021-09-10 01:26:43.626
10,650166,2021-09-10 01:26:43.634
10,650167,2021-09-10 01:26:43.642
10,650168,2021-09-10 01:26:43.650
10,650169,2021-09-10 01:26:43.658
10,650170,2021-09-10 01:26:43.666
10,650171,2021-09-10 01:26:43.674
10,650172,2021-09-10 01:26:43.682
10,650173,2021-09-10 01:26:43.690
10,650174,2021-09-10 01:26:43.698
10,650175,2021-09-10 01:26:43.706
10,650176,2021-09-10 01:26:43.714
10,650177,2021-09-10 01:26:43.722
10,650178,2021-09-10 01:26:43.730
10,650179,2021-09-10 01:26:43.738
10,650180,2021-09-10 01:26:43.746
10,650181,2021-09-10 01:26:43.754
10,650182,2021-09-10 01:26:43.762
10,650183,2021-09-10 01:26:43.770
10,650184,2021-09-10 01:26:43.778
10,650185,2021-09-10 01:26:43.786
10,650186,2021-09-10 01:26:43.794
10,650187,2021-09-10 01:26:43.802
10,650188,2021-09-10 01:26:43.810
10,650189,2021-09-10 01:26:43.818
10,650190,2021-09-10 01:26:43.826
10,650191,2021-09-10 01:26:43.834
10,650192,2021-09-10 01:26:43.842
10,650193,2021-09-10 01:26:43.850
10,650194,2021-09-10 01:26:43.858
10,650195,2021-09-10 01:26:43.866
10,650196,2021-09-10 01:26:43.874
10,650197,2021-09-10 01:26:43.882
10,650198,2021-09-10 01:26:43.890
10,650199,2021-09-10 01:26:43.898
10,650200,2021-09-10 01:26:43.906
10,650201,2021-09-10 01:26:43.914
10,650202,2021-09-10 01:26:43.922
10,650203,2021-09-10 01:26:43.930
10,650204,2021-09-10 01:26:43.938
10,650205,2021-09-10 01:26:43.946
10,650206,2021-09-10 01:26:43.954
10,650207,2021-09-10 01:26:43.962
10,650208,2021-09-10 01:26:43.970
10,650209,2021-09-10 01:26:43.978
10,650210,2021-09-10 01:26:43.986
10,650211,2021-09-10 01:26:43.994
10,650212,2021-09-10 01:26:44.002
10,650213,2021-09-10 01:26:44.010
10,650214,2021-09-10 01:26:44.018
10,650215,2021-09-10 01:26:44.026
10,650216,2021-09-10 01:26:44.034
10,650217,2021-09-10 01:26:44.042
10,650218,2021-09-10 01:26:44.050
10,650219,2021-09-10 01:26:44.058
10,650220,2021-09-10 01:26:44.066
10,650221,2021-09-10 01:26:44.074
10,650222,2021-09-10 01:26:44.082
10,650223,2021-09-10 01:26:44.090
10,650224,2021-09-10 01:26:44.098
10,650225,2021-09-10 01:26:44.106
10,650226,2021-09-10 01:26:44.114
10,650227,2021-09-10 01:26:44.122
10,650228,2021-09-10 01:26:44.130
10,650229,2021-09-10 01:26:44.138
10,650230,2021-09-10 01:26:44.146
10,650231,2021-09-10 01:26:44.154
10,650232,2021-09-10 01:26:44.162
10,650233,2021-09-10 01:26:44.170
10,650234,2021-09-10 01:26:44.178
10,650235,2021-09-10 01:26:44.186
10,650236,2021-09-10 01:26:44.194
10,650237,2021-09-10 01:26:44.202
10,650238,2021-09-10 01:26:44.210
10,650239,2021-09-10 01:26:44.218
10,650240,2021-09-10 01:26:44.226
10,650241,2021-09-10 01:26:44.234
10,650242,2021-09-10 01:26:44.242
10,650243,2021-09-10 01:26:44.250
10,650244,2021-09-10 01:26:44.258
10,650245,2021-09-10 01:26:44.266
10,650246,2021-09-10 01:26:44.274
10,650247,2021-09-10 01:26:44.282
10,650248,2021-09-10 01:26:44.290
10,650249,2021-09-10 01:26:44.298
10,650250,2021-09-10 01:26:44.306
10,650251,2021-09-10 01:26:44.314
10,650252,2021-09-10 01:26:44.322
10,650253,2021-09-10 01:26:44.330
10,650254,2021-09-10 01:26:44.338
10,650255,2021-09-10 01:26:44.346
10,650256,2021-09-10 01:26:44.354
10,650257,2021-09-10 01:26:44.362
10,650258,2021-09-10 01:26:44.370
10,650259,2021-09-10 01:26:44.378
10,650260,2021-09-10 01:26:44.386
10,650261,2021-09-10 01:26:44.394
10,650262,2021-09-10 01:26:44.402
10,650263,2021-09-10 01:26:44.410
10,650264,2021-09-10 01:26:44.418
10,650265,2021-09-10 01:26:44.426
10,650266,2021-09-10 01:26:44.434
10,650267,2021-09-10 01:26:44.442
10,650268,2021-09-10 01:26:44.450
10,650269,2021-09-10 01:26:44.458
10,650270,2021-09-10 01:26:44.466
10,650271,2021-09-10 01:26:44.474
10,650272,2021-09-10 01:26:44.482
10,650273,2021-09-10 01:26:44.490
10,650274,2021-09-10 01:26:44.498
10,650275,2021-09-10 01:26:44.506
10,650276,2021-09-10 01:26:44.514
10,650277,2021-09-10 01:26:44.522
10,650278,2021-09-10 01:26:44.530
10,650279,2021-09-10 01:26:44.538
10,650280,2021-09-10 01:26:44.546
10,650281,2021-09-10 01:26:44.554
10,650282,2021-09-10 01:26:44.562
10,650283,2021-09-10 01:26:44.570
10,650284,2021-09-10 01:26:44.578
10,650285,2021-09-10 01:26:44.586
10,650286,2021-09-10 01:26:44.594
10,650287,2021-09-10 01:26:44.602
10,650288,2021-09-10 01:26:44.610
10,650289,2021-09-10 01:26:44.618
10,650290,2021-09-10 01:26:44.626
10,650291,2021-09-10 01:26:44.634
10,650292,2021-09-10 01:26:44.642
10,650293,2021-09-10 01:26:44.650
10,650294,2021-09-10 01:26:44.658
10,650295,2021-09-10 01:26:44.666
10,650296,2021-09-10 01:26:44.674
10,650297,2021-09-10 01:26:44.682
10,650298,2021-09-10 01:26:44.690
10,650299,2021-09-10 01:26:44.698
10,650300,2021-09-10 01:26:44.706
10,650301,2021-09-10 01:26:44.714
10,650302,2021-09-10 01:26:44.722
10,650303,2021-09-10 01:26:44.730
10,650304,2021-09-10 01:26:44.738
10,650305,2021-09-10 01:26:44.746
10,650306,2021-09-10 01:26:44.754
10,650307,2021-09-10 01:26:44.762
10,650308,2021-09-10 01:26:44.770
10,650309,2021-09-10 01:26:44.778
10,650310,2021-09-10 01:26:44.786
10,650311,2021-09-10 01:26:44.794
10,650312,2021-09-10 01:26:44.802
10,650313,2021-09-10 01:26:44.810
10,650314,2021-09-10 01:26:44.818
10,650315,2021-09-10 01:26:44.826
10,650316,2021-09-10 01:26:44.834
10,650317,2021-09-10 01:26:44.842
10,650318,2021-09-10 01:26:44.850
10,650319,2021-09-10 01:26:44.858
10,650320,2021-09-10 01:26:44.866
10,650321,2021-09-10 01:26:44.874
10,650322,2021-09-10 01:26:44.882
10,650323,2021-09-10 01:26:44.890
10,650324,2021-09-10 01:26:44.898
10,650325,2021-09-10 01:26:44.906
10,650326,2021-09-10 01:26:44.914
10,650327,2021-09-10 01:26:44.922
10,650328,2021-09-10 01:26:44.930
10,650329,2021-09-10 01:26:44.938
10,650330,2021-09-10 01:26:44.946
10,650331,2021-09-10 01:26:44.954
10,650332,2021-09-10 01:26:44.962
10,650333,2021-09-10 01:26:44.970
10,650334,2021-09-10 01:26:44.978
10,650335,2021-09-10 01:26:44.986
10,650336,2021-09-10 01:26:44.994
10,650337,2021-09-10 01:26:45.002
10,650338,2021-09-10 01:26:45.010
10,650339,2021-09-10 01:26:45.018
10,650340,2021-09-10 01:26:45.026
10,650341,2021-09-10 01:26:45.034
10,650342,2021-09-10 01:26:45.042
10,650343,2021-09-10 01:26:45.050
10,650344,2021-09-10 01:26:45.058
10,650345,2021-09-10 01:26:45.066
10,650346,2021-09-10 01:26:45.074
10,650347,2021-09-10 01:26:45.082
10,650348,2021-09-10 01:26:45.090
10,650349,2021-09-10 01:26:45.098
10,650350,2021-09-10 01:26:45.106
10,650351,2021-09-10 01:26:45.114
10,650352,2021-09-10 01:26:45.122
10,650353,2021-09-10 01:26:45.130
10,650354,2021-09-10 01:26:45.138
10,650355,2021-09-10 01:26:45.146
10,650356,2021-09-10 01:26:45.154
10,650357,2021-09-10 01:26:45.162
10,650358,2021-09-10 01:26:45.170
10,650359,2021-09-10 01:26:45.178
10,650360,2021-09-10 01:26:45.186
10,650361,2021-09-10 01:26:45.194
10,650362,2021-09-10 01:26:45.202
10,650363,2021-09-10 01:26:45.210
10,650364,2021-09-10 01:26:45.218
10,650365,2021-09-10 01:26:45.226
10,650366,2021-09-10 01:26:45.234
10,650367,2021-09-10 01:26:45.242
10,650368,2021-09-10 01:26:45.250
10,650369,2021-09-10 01:26:45.258
10,650370,2021-09-10 01:26:45.266
10,650371,2021-09-10 01:26:45.274
10,650372,2021-09-10 01:26:45.282
10,650373,2021-09-10 01:26:45.290
10,650374,2021-09-10 01:26:45.298
10,650375,2021-09-10 01:26:45.306
10,650376,2021-09-10 01:26:45.314
10,650377,2021-09-10 01:26:45.322
10,650378,2021-09-10 01:26:45.330
10,650379,2021-09-10 01:26:45.338
10,650380,2021-09-10 01:26:45.346
10,650381,2021-09-10 01:26:45.354
10,650382,2021-09-10 01:26:45.362
10,650383,2021-09-10 01:26:45.370
10,650384,2021-09-10 01:26:45.378
10,650385,2021-09-10 01:26:45.386
10,650386,2021-09-10 01:26:45.394
10,650387,2021-09-10 01:26:45.402
10,650388,2021-09-10 01:26:45.410
10,650389,2021-09-10 01:26:45.418
10,650390,2021-09-10 01:26:45.426
10,650391,2021-09-10 01:26:45.434
10,650392,2021-09-10 01:26:45.442
10,650393,2021-09-10 01:26:45.450
10,650394,2021-09-10 01:26:45.458
10,650395,2021-09-10 01:26:45.466
10,650396,2021-09-10 01:26:45.474
10,650397,2021-09-10 01:26:45.482
10,650398,2021-09-10 01:26:45.490
10,650399,2021-09-10 01:26:45.498
10,650400,2021-09-10 01:26:45.506
10,650401,2021-09-10 01:26:45.514
10,650402,2021-09-10 01:26:45.522
10,650403,2021-09-10 01:26:45.530
10,650404,2021-09-10 01:26:45.538
10,650405,2021-09-10 01:26:45.546
10,650406,2021-09-10 01:26:45.554
10,650407,2021-09-10 01:26:45.562
10,650408,2021-09-10 01:26:45.570
10,650409,2021-09-10 01:26:45.578
10,650410,2021-09-10 01:26:45.586
10,650411,2021-09-10 01:26:45.594
10,650412,2021-09-10 01:26:45.602
10,650413,2021-09-10 01:26:45.610
10,650414,2021-09-10 01:26:45.618
10,650415,2021-09-10 01:26:45.626
10,650416,2021-09-10 01:26:45.634
10,650417,2021-09-10 01:26:45.642
10,650418,2021-09-10 01:26:45.650
10,650419,2021-09-10 01:26:45.658
10,650420,2021-09-10 01:26:45.666
10,650421,2021-09-10 01:26:45.674
10,650422,2021-09-10 01:26:45.682
10,650423,2021-09-10 01:26:45.690
10,650424,2021-09-10 01:26:45.698
10,650425,2021-09-10 01:26:45.706
10,650426,2021-09-10 01:26:45.714
10,650427,2021-09-10 01:26:45.722
10,650428,2021-09-10 01:26:45.730
10,650429,2021-09-10 01:26:45.738
10,650430,2021-09-10 01:26:45.746
10,650431,2021-09-10 01:26:45.754
10,650432,2021-09-10 01:26:45.762
10,650433,2021-09-10 01:26:45.770
10,650434,2021-09-10 01:26:45.778
10,650435,2021-09-10 01:26:45.786
10,650436,2021-09-10 01:26:45.794
10,650437,2021-09-10 01:26:45.802
10,650438,2021-09-10 01:26:45.810
10,650439,2021-09-10 01:26:45.818
10,650440,2021-09-10 01:26:45.826
10,650441,2021-09-10 01:26:45.834
10,650442,2021-09-10 01:26:45.842
10,650443,2021-09-10 01:26:45.850
10,650444,2021-09-10 01:26:45.858
10,650445,2021-09-10 01:26:45.866
10,650446,2021-09-10 01:26:45.874
10,650447,2021-09-10 01:26:45.882
10,650448,2021-09-10 01:26:45.890
10,650449,2021-09-10 01:26:45.898
10,650450,2021-09-10 01:26:45.906
10,650451,2021-09-10 01:26:45.914
10,650452,2021-09-10 01:26:45.922
10,650453,2021-09-10 01:26:45.930
10,650454,2021-09-10 01:26:45.938
10,650455,2021-09-10 01:26:45.946
10,650456,2021-09-10 01:26:45.954
10,650457,2021-09-10 01:26:45.962
10,650458,2021-09-10 01:26:45.970
10,650459,2021-09-10 01:26:45.978
10,650460,2021-09-10 01:26:45.986
10,650461,2021-09-10 01:26:45.994
10,650462,2021-09-10 01:26:46.002
10,650463,2021-09-10 01:26:46.010
10,650464,2021-09-10 01:26:46.018
10,650465,2021-09-10 01:26:46.026
10,650466,2021-09-10 01:26:46.034
10,650467,2021-09-10 01:26:46.042
10,650468,2021-09-10 01:26:46.050
10,650469,2021-09-10 01:26:46.058
10,650470,2021-09-10 01:26:46.066
10,650471,2021-09-10 01:26:46.074
10,650472,2021-09-10 01:26:46.082
10,650473,2021-09-10 01:26:46.090
10,650474,2021-09-10 01:26:46.098
10,650475,2021-09-10 01:26:46.106
10,650476,2021-09-10 01:26:46.114
10,650477,2021-09-10 01:26:46.122
10,650478,2021-09-10 01:26:46.130
10,650479,2021-09-10 01:26:46.138
10,650480,2021-09-10 01:26:46.146
10,650481,2021-09-10 01:26:46.154
10,650482,2021-09-10 01:26:46.162
10,650483,2021-09-10 01:26:46.170
10,650484,2021-09-10 01:26:46.178
10,650485,2021-09-10 01:26:46.186
10,650486,2021-09-10 01:26:46.194
10,650487,2021-09-10 01:26:46.202
10,650488,2021-09-10 01:26:46.210
10,650489,2021-09-10 01:26:46.218
10,650490,2021-09-10 01:26:46.226
10,650491,2021-09-10 01:26:46.234
10,650492,2021-09-10 01:26:46.242
10,650493,2021-09-10 01:26:46.250
10,650494,2021-09-10 01:26:46.258
10,650495,2021-09-10 01:26:46.266
10,650496,2021-09-10 01:26:46.274
10,650497,2021-09-10 01:26:46.282
10,650498,2021-09-10 01:26:46.290
10,650499,2021-09-10 01:26:46.298
10,650500,2021-09-10 01:26:46.306
10,650501,2021-09-10 01:26:46.314
10,650502,2021-09-10 01:26:46.322
10,650503,2021-09-10 01:26:46.330
10,650504,2021-09-10 01:26:46.338
10,650505,2021-09-10 01:26:46.346
10,650506,2021-09-10 01:26:46.354
10,650507,2021-09-10 01:26:46.362
10,650508,2021-09-10 01:26:46.370
10,650509,2021-09-10 01:26:46.378
10,650510,2021-09-10 01:26:46.386
10,650511,2021-09-10 01:26:46.394
10,650512,2021-09-10 01:26:46.402
10,650513,2021-09-10 01:26:46.410
10,650514,2021-09-10 01:26:46.418
10,650515,2021-09-10 01:26:46.426
10,650516,2021-09-10 01:26:46.434
10,650517,2021-09-10 01:26:46.442
10,650518,2021-09-10 01:26:46.450
10,650519,2021-09-10 01:26:46.458
10,650520,2021-09-10 01:26:46.466
10,650521,2021-09-10 01:26:46.474
10,650522,2021-09-10 01:26:46.482
10,650523,2021-09-10 01:26:46.490
10,650524,2021-09-10 01:26:46.498
10,650525,2021-09-10 01:26:46.506
10,650526,2021-09-10 01:26:46.514
10,650527,2021-09-10 01:26:46.522
10,650528,2021-09-10 01:26:46.530
10,650529,2021-09-10 01:26:46.538
10,650530,2021-09-10 01:26:46.546
10,650531,2021-09-10 01:26:46.554
10,650532,2021-09-10 01:26:46.562
10,650533,2021-09-10 01:26:46.570
10,650534,2021-09-10 01:26:46.578
10,650535,2021-09-10 01:26:46.586
10,650536,2021-09-10 01:26:46.594
10,650537,2021-09-10 01:26:46.602
10,650538,2021-09-10 01:26:46.610
10,650539,2021-09-10 01:26:46.618
10,650540,2021-09-10 01:26:46.626
10,650541,2021-09-10 01:26:46.634
10,650542,2021-09-10 01:26:46.642
10,650543,2021-09-10 01:26:46.650
10,650544,2021-09-10 01:26:46.658
10,650545,2021-09-10 01:26:46.666
10,650546,2021-09-10 01:26:46.674
10,650547,2021-09-10 01:26:46.682
10,650548,2021-09-10 01:26:46.690
10,650549,2021-09-10 01:26:46.698
10,650550,2021-09-10 01:26:46.706
10,650551,2021-09-10 01:26:46.714
10,650552,2021-09-10 01:26:46.722
10,650553,2021-09-10 01:26:46.730
10,650554,2021-09-10 01:26:46.738
10,650555,2021-09-10 01:26:46.746
10,650556,2021-09-10 01:26:46.754
10,650557,2021-09-10 01:26:46.762
10,650558,2021-09-10 01:26:46.770
10,650559,2021-09-10 01:26:46.778
10,650560,2021-09-10 01:26:46.786
10,650561,2021-09-10 01:26:46.794
10,650562,2021-09-10 01:26:46.802
10,650563,2021-09-10 01:26:46.810
10,650564,2021-09-10 01:26:46.818
10,650565,2021-09-10 01:26:46.826
10,650566,2021-09-10 01:26:46.834
10,650567,2021-09-10 01:26:46.842
10,650568,2021-09-10 01:26:46.850
10,650569,2021-09-10 01:26:46.858
10,650570,2021-09-10 01:26:46.866
10,650571,2021-09-10 01:26:46.874
10,650572,2021-09-10 01:26:46.882
10,650573,2021-09-10 01:26:46.890
10,650574,2021-09-10 01:26:46.898
10,650575,2021-09-10 01:26:46.906
10,650576,2021-09-10 01:26:46.914
10,650577,2021-09-10 01:26:46.922
10,650578,2021-09-10 01:26:46.930
10,650579,2021-09-10 01:26:46.938
10,650580,2021-09-10 01:26:46.946
10,650581,2021-09-10 01:26:46.954
10,650582,2021-09-10 01:26:46.962
10,650583,2021-09-10 01:26:46.970
10,650584,2021-09-10 01:26:46.978
10,650585,2021-09-10 01:26:46.986
10,650586,2021-09-10 01:26:46.994
10,650587,2021-09-10 01:26:47.002
10,650588,2021-09-10 01:26:47.010
10,650589,2021-09-10 01:26:47.018
10,650590,2021-09-10 01:26:47.026
10,650591,2021-09-10 01:26:47.034
10,650592,2021-09-10 01:26:47.042
10,650593,2021-09-10 01:26:47.050
10,650594,2021-09-10 01:26:47.058
10,650595,2021-09-10 01:26:47.066
10,650596,2021-09-10 01:26:47.074
10,650597,2021-09-10 01:26:47.082
10,650598,2021-09-10 01:26:47.090
10,650599,2021-09-10 01:26:47.098
10,650600,2021-09-10 01:26:47.106
10,650601,2021-09-10 01:26:47.114
10,650602,2021-09-10 01:26:47.122
10,650603,2021-09-10 01:26:47.130
10,650604,2021-09-10 01:26:47.138
10,650605,2021-09-10 01:26:47.146
10,650606,2021-09-10 01:26:47.154
10,650607,2021-09-10 01:26:47.162
10,650608,2021-09-10 01:26:47.170
10,650609,2021-09-10 01:26:47.178
10,650610,2021-09-10 01:26:47.186
10,650611,2021-09-10 01:26:47.194
10,650612,2021-09-10 01:26:47.202
10,650613,2021-09-10 01:26:47.210
10,650614,2021-09-10 01:26:47.218
10,650615,2021-09-10 01:26:47.226
10,650616,2021-09-10 01:26:47.234
10,650617,2021-09-10 01:26:47.242
10,650618,2021-09-10 01:26:47.250
10,650619,2021-09-10 01:26:47.258
10,650620,2021-09-10 01:26:47.266
10,650621,2021-09-10 01:26:47.274
10,650622,2021-09-10 01:26:47.282
10,650623,2021-09-10 01:26:47.290
10,650624,2021-09-10 01:26:47.298
10,650625,2021-09-10 01:26:47.306
10,650626,2021-09-10 01:26:47.314
10,650627,2021-09-10 01:26:47.322
10,650628,2021-09-10 01:26:47.330
10,650629,2021-09-10 01:26:47.338
10,650630,2021-09-10 01:26:47.346
10,650631,2021-09-10 01:26:47.354
10,650632,2021-09-10 01:26:47.362
10,650633,2021-09-10 01:26:47.370
10,650634,2021-09-10 01:26:47.378
10,650635,2021-09-10 01:26:47.386
10,650636,2021-09-10 01:26:47.394
10,650637,2021-09-10 01:26:47.402
10,650638,2021-09-10 01:26:47.410
10,650639,2021-09-10 01:26:47.418
10,650640,2021-09-10 01:26:47.426
10,650641,2021-09-10 01:26:47.434
10,650642,2021-09-10 01:26:47.442
10,650643,2021-09-10 01:26:47.450
10,650644,2021-09-10 01:26:47.458
10,650645,2021-09-10 01:26:47.466
10,650646,2021-09-10 01:26:47.474
10,650647,2021-09-10 01:26:47.482
10,650648,2021-09-10 01:26:47.490
10,650649,2021-09-10 01:26:47.498
10,650650,2021-09-10 01:26:47.506
10,650651,2021-09-10 01:26:47.514
10,650652,2021-09-10 01:26:47.522
10,650653,2021-09-10 01:26:47.530
10,650654,2021-09-10 01:26:47.538
10,650655,2021-09-10 01:26:47.546
10,650656,2021-09-10 01:26:47.554
10,650657,2021-09-10 01:26:47.562
10,650658,2021-09-10 01:26:47.570
10,650659,2021-09-10 01:26:47.578
10,650660,2021-09-10 01:26:47.586
10,650661,2021-09-10 01:26:47.594
10,650662,2021-09-10 01:26:47.602
10,650663,2021-09-10 01:26:47.610
10,650664,2021-09-10 01:26:47.618
10,650665,2021-09-10 01:26:47.626
10,650666,2021-09-10 01:26:47.634
10,650667,2021-09-10 01:26:47.642
10,650668,2021-09-10 01:26:47.650
10,650669,2021-09-10 01:26:47.658
10,650670,2021-09-10 01:26:47.666
10,650671,2021-09-10 01:26:47.674
10,650672,2021-09-10 01:26:47.682
10,650673,2021-09-10 01:26:47.690
10,650674,2021-09-10 01:26:47.698
10,650675,2021-09-10 01:26:47.706
10,650676,2021-09-10 01:26:47.714
10,650677,2021-09-10 01:26:47.722
10,650678,2021-09-10 01:26:47.730
10,650679,2021-09-10 01:26:47.738
10,650680,2021-09-10 01:26:47.746
10,650681,2021-09-10 01:26:47.754
10,650682,2021-09-10 01:26:47.762
10,650683,2021-09-10 01:26:47.770
10,650684,2021-09-10 01:26:47.778
10,650685,2021-09-10 01:26:47.786
10,650686,2021-09-10 01:26:47.794
10,650687,2021-09-10 01:26:47.802
10,650688,2021-09-10 01:26:47.810
10,650689,2021-09-10 01:26:47.818
10,650690,2021-09-10 01:26:47.826
10,650691,2021-09-10 01:26:47.834
10,650692,2021-09-10 01:26:47.842
10,650693,2021-09-10 01:26:47.850
10,650694,2021-09-10 01:26:47.858
10,650695,2021-09-10 01:26:47.866
10,650696,2021-09-10 01:26:47.874
10,650697,2021-09-10 01:26:47.882
10,650698,2021-09-10 01:26:47.890
10,650699,2021-09-10 01:26:47.898
10,650700,2021-09-10 01:26:47.906
10,650701,2021-09-10 01:26:47.914
10,650702,2021-09-10 01:26:47.922
10,650703,2021-09-10 01:26:47.930
10,650704,2021-09-10 01:26:47.938
10,650705,2021-09-10 01:26:47.946
10,650706,2021-09-10 01:26:47.954
10,650707,2021-09-10 01:26:47.962
10,650708,2021-09-10 01:26:47.970
10,650709,2021-09-10 01:26:47.978
10,650710,2021-09-10 01:26:47.986
10,650711,2021-09-10 01:26:47.994
10,650712,2021-09-10 01:26:48.002
10,650713,2021-09-10 01:26:48.010
10,650714,2021-09-10 01:26:48.018
10,650715,2021-09-10 01:26:48.026
10,650716,2021-09-10 01:26:48.034
10,650717,2021-09-10 01:26:48.042
10,650718,2021-09-10 01:26:48.050
10,650719,2021-09-10 01:26:48.058
10,650720,2021-09-10 01:26:48.066
10,650721,2021-09-10 01:26:48.074
10,650722,2021-09-10 01:26:48.082
10,650723,2021-09-10 01:26:48.090
10,650724,2021-09-10 01:26:48.098
10,650725,2021-09-10 01:26:48.106
10,650726,2021-09-10 01:26:48.114
10,650727,2021-09-10 01:26:48.122
10,650728,2021-09-10 01:26:48.130
10,650729,2021-09-10 01:26:48.138
10,650730,2021-09-10 01:26:48.146
10,650731,2021-09-10 01:26:48.154
10,650732,2021-09-10 01:26:48.162
10,650733,2021-09-10 01:26:48.170
10,650734,2021-09-10 01:26:48.178
10,650735,2021-09-10 01:26:48.186
10,650736,2021-09-10 01:26:48.194
10,650737,2021-09-10 01:26:48.202
10,650738,2021-09-10 01:26:48.210
10,650739,2021-09-10 01:26:48.218
10,650740,2021-09-10 01:26:48.226
10,650741,2021-09-10 01:26:48.234
10,650742,2021-09-10 01:26:48.242
10,650743,2021-09-10 01:26:48.250
10,650744,2021-09-10 01:26:48.258
10,650745,2021-09-10 01:26:48.266
10,650746,2021-09-10 01:26:48.274
10,650747,2021-09-10 01:26:48.282
10,650748,2021-09-10 01:26:48.290
10,650749,2021-09-10 01:26:48.298
10,650750,2021-09-10 01:26:48.306
10,650751,2021-09-10 01:26:48.314
10,650752,2021-09-10 01:26:48.322
10,650753,2021-09-10 01:26:48.330
10,650754,2021-09-10 01:26:48.338
10,650755,2021-09-10 01:26:48.346
10,650756,2021-09-10 01:26:48.354
10,650757,2021-09-10 01:26:48.362
10,650758,2021-09-10 01:26:48.370
10,650759,2021-09-10 01:26:48.378
10,650760,2021-09-10 01:26:48.386
10,650761,2021-09-10 01:26:48.394
10,650762,2021-09-10 01:26:48.402
10,650763,2021-09-10 01:26:48.410
10,650764,2021-09-10 01:26:48.418
10,650765,2021-09-10 01:26:48.426
10,650766,2021-09-10 01:26:48.434
10,650767,2021-09-10 01:26:48.442
10,650768,2021-09-10 01:26:48.450
10,650769,2021-09-10 01:26:48.458
10,650770,2021-09-10 01:26:48.466
10,650771,2021-09-10 01:26:48.474
10,650772,2021-09-10 01:26:48.482
10,650773,2021-09-10 01:26:48.490
10,650774,2021-09-10 01:26:48.498
10,650775,2021-09-10 01:26:48.506
10,650776,2021-09-10 01:26:48.514
10,650777,2021-09-10 01:26:48.522
10,650778,2021-09-10 01:26:48.530
10,650779,2021-09-10 01:26:48.538
10,650780,2021-09-10 01:26:48.546
10,650781,2021-09-10 01:26:48.554
10,650782,2021-09-10 01:26:48.562
10,650783,2021-09-10 01:26:48.570
10,650784,2021-09-10 01:26:48.578
10,650785,2021-09-10 01:26:48.586
10,650786,2021-09-10 01:26:48.594
10,650787,2021-09-10 01:26:48.602
10,650788,2021-09-10 01:26:48.610
10,650789,2021-09-10 01:26:48.618
10,650790,2021-09-10 01:26:48.626
10,650791,2021-09-10 01:26:48.634
10,650792,2021-09-10 01:26:48.642
10,650793,2021-09-10 01:26:48.650
10,650794,2021-09-10 01:26:48.658
10,650795,2021-09-10 01:26:48.666
10,650796,2021-09-10 01:26:48.674
10,650797,2021-09-10 01:26:48.682
10,650798,2021-09-10 01:26:48.690
10,650799,2021-09-10 01:26:48.698
10,650800,2021-09-10 01:26:48.706
10,650801,2021-09-10 01:26:48.714
10,650802,2021-09-10 01:26:48.722
10,650803,2021-09-10 01:26:48.730
10,650804,2021-09-10 01:26:48.738
10,650805,2021-09-10 01:26:48.746
10,650806,2021-09-10 01:26:48.754
10,650807,2021-09-10 01:26:48.762
10,650808,2021-09-10 01:26:48.770
10,650809,2021-09-10 01:26:48.778
10,650810,2021-09-10 01:26:48.786
10,650811,2021-09-10 01:26:48.794
10,650812,2021-09-10 01:26:48.802
10,650813,2021-09-10 01:26:48.810
10,650814,2021-09-10 01:26:48.818
10,650815,2021-09-10 01:26:48.826
10,650816,2021-09-10 01:26:48.834
10,650817,2021-09-10 01:26:48.842
10,650818,2021-09-10 01:26:48.850
10,650819,2021-09-10 01:26:48.858
10,650820,2021-09-10 01:26:48.866
10,650821,2021-09-10 01:26:48.874
10,650822,2021-09-10 01:26:48.882
10,650823,2021-09-10 01:26:48.890
10,650824,2021-09-10 01:26:48.898
10,650825,2021-09-10 01:26:48.906
10,650826,2021-09-10 01:26:48.914
10,650827,2021-09-10 01:26:48.922
10,650828,2021-09-10 01:26:48.930
10,650829,2021-09-10 01:26:48.938
10,650830,2021-09-10 01:26:48.946
10,650831,2021-09-10 01:26:48.954
10,650832,2021-09-10 01:26:48.962
10,650833,2021-09-10 01:26:48.970
10,650834,2021-09-10 01:26:48.978
10,650835,2021-09-10 01:26:48.986
10,650836,2021-09-10 01:26:48.994
10,650837,2021-09-10 01:26:49.002
10,650838,2021-09-10 01:26:49.010
10,650839,2021-09-10 01:26:49.018
10,650840,2021-09-10 01:26:49.026
10,650841,2021-09-10 01:26:49.034
10,650842,2021-09-10 01:26:49.042
10,650843,2021-09-10 01:26:49.050
10,650844,2021-09-10 01:26:49.058
10,650845,2021-09-10 01:26:49.066
10,650846,2021-09-10 01:26:49.074
10,650847,2021-09-10 01:26:49.082
10,650848,2021-09-10 01:26:49.090
10,650849,2021-09-10 01:26:49.098
10,650850,2021-09-10 01:26:49.106
10,650851,2021-09-10 01:26:49.114
10,650852,2021-09-10 01:26:49.122
10,650853,2021-09-10 01:26:49.130
10,650854,2021-09-10 01:26:49.138
10,650855,2021-09-10 01:26:49.146
10,650856,2021-09-10 01:26:49.154
10,650857,2021-09-10 01:26:49.162
10,650858,2021-09-10 01:26:49.170
10,650859,2021-09-10 01:26:49.178
10,650860,2021-09-10 01:26:49.186
10,650861,2021-09-10 01:26:49.194
10,650862,2021-09-10 01:26:49.202
10,650863,2021-09-10 01:26:49.210
10,650864,2021-09-10 01:26:49.218
10,650865,2021-09-10 01:26:49.226
10,650866,2021-09-10 01:26:49.234
10,650867,2021-09-10 01:26:49.242
10,650868,2021-09-10 01:26:49.250
10,650869,2021-09-10 01:26:49.258
10,650870,2021-09-10 01:26:49.266
10,650871,2021-09-10 01:26:49.274
10,650872,2021-09-10 01:26:49.282
10,650873,2021-09-10 01:26:49.290
10,650874,2021-09-10 01:26:49.298
10,650875,2021-09-10 01:26:49.306
10,650876,2021-09-10 01:26:49.314
10,650877,2021-09-10 01:26:49.322
10,650878,2021-09-10 01:26:49.330
10,650879,2021-09-10 01:26:49.338
10,650880,2021-09-10 01:26:49.346
10,650881,2021-09-10 01:26:49.354
10,650882,2021-09-10 01:26:49.362
10,650883,2021-09-10 01:26:49.370
10,650884,2021-09-10 01:26:49.378
10,650885,2021-09-10 01:26:49.386
10,650886,2021-09-10 01:26:49.394
10,650887,2021-09-10 01:26:49.402
10,650888,2021-09-10 01:26:49.410
10,650889,2021-09-10 01:26:49.418
10,650890,2021-09-10 01:26:49.426
10,650891,2021-09-10 01:26:49.434
10,650892,2021-09-10 01:26:49.442
10,650893,2021-09-10 01:26:49.450
10,650894,2021-09-10 01:26:49.458
10,650895,2021-09-10 01:26:49.466
10,650896,2021-09-10 01:26:49.474
10,650897,2021-09-10 01:26:49.482
10,650898,2021-09-10 01:26:49.490
10,650899,2021-09-10 01:26:49.498
10,650900,2021-09-10 01:26:49.506
10,650901,2021-09-10 01:26:49.514
10,650902,2021-09-10 01:26:49.522
10,650903,2021-09-10 01:26:49.530
10,650904,2021-09-10 01:26:49.538
10,650905,2021-09-10 01:26:49.546
10,650906,2021-09-10 01:26:49.554
10,650907,2021-09-10 01:26:49.562
10,650908,2021-09-10 01:26:49.570
10,650909,2021-09-10 01:26:49.578
10,650910,2021-09-10 01:26:49.586
10,650911,2021-09-10 01:26:49.594
10,650912,2021-09-10 01:26:49.602
10,650913,2021-09-10 01:26:49.610
10,650914,2021-09-10 01:26:49.618
10,650915,2021-09-10 01:26:49.626
10,650916,2021-09-10 01:26:49.634
10,650917,2021-09-10 01:26:49.642
10,650918,2021-09-10 01:26:49.650
10,650919,2021-09-10 01:26:49.658
10,650920,2021-09-10 01:26:49.666
10,650921,2021-09-10 01:26:49.674
10,650922,2021-09-10 01:26:49.682
10,650923,2021-09-10 01:26:49.690
10,650924,2021-09-10 01:26:49.698
10,650925,2021-09-10 01:26:49.706
10,650926,2021-09-10 01:26:49.714
10,650927,2021-09-10 01:26:49.722
10,650928,2021-09-10 01:26:49.730
10,650929,2021-09-10 01:26:49.738
10,650930,2021-09-10 01:26:49.746
10,650931,2021-09-10 01:26:49.754
10,650932,2021-09-10 01:26:49.762
10,650933,2021-09-10 01:26:49.770
10,650934,2021-09-10 01:26:49.778
10,650935,2021-09-10 01:26:49.786
10,650936,2021-09-10 01:26:49.794
10,650937,2021-09-10 01:26:49.802
10,650938,2021-09-10 01:26:49.810
10,650939,2021-09-10 01:26:49.818
10,650940,2021-09-10 01:26:49.826
10,650941,2021-09-10 01:26:49.834
10,650942,2021-09-10 01:26:49.842
10,650943,2021-09-10 01:26:49.850
10,650944,2021-09-10 01:26:49.858
10,650945,2021-09-10 01:26:49.866
10,650946,2021-09-10 01:26:49.874
10,650947,2021-09-10 01:26:49.882
10,650948,2021-09-10 01:26:49.890
10,650949,2021-09-10 01:26:49.898
10,650950,2021-09-10 01:26:49.906
10,650951,2021-09-10 01:26:49.914
10,650952,2021-09-10 01:26:49.922
10,650953,2021-09-10 01:26:49.930
10,650954,2021-09-10 01:26:49.938
10,650955,2021-09-10 01:26:49.946
10,650956,2021-09-10 01:26:49.954
10,650957,2021-09-10 01:26:49.962
10,650958,2021-09-10 01:26:49.970
10,650959,2021-09-10 01:26:49.978
10,650960,2021-09-10 01:26:49.986
10,650961,2021-09-10 01:26:49.994
10,650962,2021-09-10 01:26:50.002
10,650963,2021-09-10 01:26:50.010
10,650964,2021-09-10 01:26:50.018
10,650965,2021-09-10 01:26:50.026
10,650966,2021-09-10 01:26:50.034
10,650967,2021-09-10 01:26:50.042
10,650968,2021-09-10 01:26:50.050
10,650969,2021-09-10 01:26:50.058
10,650970,2021-09-10 01:26:50.066
10,650971,2021-09-10 01:26:50.074
10,650972,2021-09-10 01:26:50.082
10,650973,2021-09-10 01:26:50.090
10,650974,2021-09-10 01:26:50.098
10,650975,2021-09-10 01:26:50.106
10,650976,2021-09-10 01:26:50.114
10,650977,2021-09-10 01:26:50.122
10,650978,2021-09-10 01:26:50.130
10,650979,2021-09-10 01:26:50.138
10,650980,2021-09-10 01:26:50.146
10,650981,2021-09-10 01:26:50.154
10,650982,2021-09-10 01:26:50.162
10,650983,2021-09-10 01:26:50.170
10,650984,2021-09-10 01:26:50.178
10,650985,2021-09-10 01:26:50.186
10,650986,2021-09-10 01:26:50.194
10,650987,2021-09-10 01:26:50.202
10,650988,2021-09-10 01:26:50.210
10,650989,2021-09-10 01:26:50.218
10,650990,2021-09-10 01:26:50.226
10,650991,2021-09-10 01:26:50.234
10,650992,2021-09-10 01:26:50.242
10,650993,2021-09-10 01:26:50.250
10,650994,2021-09-10 01:26:50.258
10,650995,2021-09-10 01:26:50.266
10,650996,2021-09-10 01:26:50.274
10,650997,2021-09-10 01:26:50.282
10,650998,2021-09-10 01:26:50.290
10,650999,2021-09-10 01:26:50.298
10,651000,2021-09-10 01:26:50.306
10,651001,2021-09-10 01:26:50.314
10,651002,2021-09-10 01:26:50.322
10,651003,2021-09-10 01:26:50.330
10,651004,2021-09-10 01:26:50.338
10,651005,2021-09-10 01:26:50.346
10,651006,2021-09-10 01:26:50.354
10,651007,2021-09-10 01:26:50.362
10,651008,2021-09-10 01:26:50.370
10,651009,2021-09-10 01:26:50.378
10,651010,2021-09-10 01:26:50.386
10,651011,2021-09-10 01:26:50.394
10,651012,2021-09-10 01:26:50.402
10,651013,2021-09-10 01:26:50.410
10,651014,2021-09-10 01:26:50.418
10,651015,2021-09-10 01:26:50.426
10,651016,2021-09-10 01:26:50.434
10,651017,2021-09-10 01:26:50.442
10,651018,2021-09-10 01:26:50.450
10,651019,2021-09-10 01:26:50.458
10,651020,2021-09-10 01:26:50.466
10,651021,2021-09-10 01:26:50.474
10,651022,2021-09-10 01:26:50.482
10,651023,2021-09-10 01:26:50.490
10,651024,2021-09-10 01:26:50.498
10,651025,2021-09-10 01:26:50.506
10,651026,2021-09-10 01:26:50.514
10,651027,2021-09-10 01:26:50.522
10,651028,2021-09-10 01:26:50.530
10,651029,2021-09-10 01:26:50.538
10,651030,2021-09-10 01:26:50.546
10,651031,2021-09-10 01:26:50.554
10,651032,2021-09-10 01:26:50.562
10,651033,2021-09-10 01:26:50.570
10,651034,2021-09-10 01:26:50.578
10,651035,2021-09-10 01:26:50.586
10,651036,2021-09-10 01:26:50.594
10,651037,2021-09-10 01:26:50.602
10,651038,2021-09-10 01:26:50.610
10,651039,2021-09-10 01:26:50.618
10,651040,2021-09-10 01:26:50.626
10,651041,2021-09-10 01:26:50.634
10,651042,2021-09-10 01:26:50.642
10,651043,2021-09-10 01:26:50.650
10,651044,2021-09-10 01:26:50.658
10,651045,2021-09-10 01:26:50.666
10,651046,2021-09-10 01:26:50.674
10,651047,2021-09-10 01:26:50.682
10,651048,2021-09-10 01:26:50.690
10,651049,2021-09-10 01:26:50.698
10,651050,2021-09-10 01:26:50.706
10,651051,2021-09-10 01:26:50.714
10,651052,2021-09-10 01:26:50.722
10,651053,2021-09-10 01:26:50.730
10,651054,2021-09-10 01:26:50.738
10,651055,2021-09-10 01:26:50.746
10,651056,2021-09-10 01:26:50.754
10,651057,2021-09-10 01:26:50.762
10,651058,2021-09-10 01:26:50.770
10,651059,2021-09-10 01:26:50.778
10,651060,2021-09-10 01:26:50.786
10,651061,2021-09-10 01:26:50.794
10,651062,2021-09-10 01:26:50.802
10,651063,2021-09-10 01:26:50.810
10,651064,2021-09-10 01:26:50.818
10,651065,2021-09-10 01:26:50.826
10,651066,2021-09-10 01:26:50.834
10,651067,2021-09-10 01:26:50.842
10,651068,2021-09-10 01:26:50.850
10,651069,2021-09-10 01:26:50.858
10,651070,2021-09-10 01:26:50.866
10,651071,2021-09-10 01:26:50.874
10,651072,2021-09-10 01:26:50.882
10,651073,2021-09-10 01:26:50.890
10,651074,2021-09-10 01:26:50.898
10,651075,2021-09-10 01:26:50.906
10,651076,2021-09-10 01:26:50.914
10,651077,2021-09-10 01:26:50.922
10,651078,2021-09-10 01:26:50.930
10,651079,2021-09-10 01:26:50.938
10,651080,2021-09-10 01:26:50.946
10,651081,2021-09-10 01:26:50.954
10,651082,2021-09-10 01:26:50.962
10,651083,2021-09-10 01:26:50.970
10,651084,2021-09-10 01:26:50.978
10,651085,2021-09-10 01:26:50.986
10,651086,2021-09-10 01:26:50.994
10,651087,2021-09-10 01:26:51.002
10,651088,2021-09-10 01:26:51.010
10,651089,2021-09-10 01:26:51.018
10,651090,2021-09-10 01:26:51.026
10,651091,2021-09-10 01:26:51.034
10,651092,2021-09-10 01:26:51.042
10,651093,2021-09-10 01:26:51.050
10,651094,2021-09-10 01:26:51.058
10,651095,2021-09-10 01:26:51.066
10,651096,2021-09-10 01:26:51.074
10,651097,2021-09-10 01:26:51.082
10,651098,2021-09-10 01:26:51.090
10,651099,2021-09-10 01:26:51.098
10,651100,2021-09-10 01:26:51.106
10,651101,2021-09-10 01:26:51.114
10,651102,2021-09-10 01:26:51.122
10,651103,2021-09-10 01:26:51.130
10,651104,2021-09-10 01:26:51.138
10,651105,2021-09-10 01:26:51.146
10,651106,2021-09-10 01:26:51.154
10,651107,2021-09-10 01:26:51.162
10,651108,2021-09-10 01:26:51.170
10,651109,2021-09-10 01:26:51.178
10,651110,2021-09-10 01:26:51.186
10,651111,2021-09-10 01:26:51.194
10,651112,2021-09-10 01:26:51.202
10,651113,2021-09-10 01:26:51.210
10,651114,2021-09-10 01:26:51.218
10,651115,2021-09-10 01:26:51.226
10,651116,2021-09-10 01:26:51.234
10,651117,2021-09-10 01:26:51.242
10,651118,2021-09-10 01:26:51.250
10,651119,2021-09-10 01:26:51.258
10,651120,2021-09-10 01:26:51.266
10,651121,2021-09-10 01:26:51.274
10,651122,2021-09-10 01:26:51.282
10,651123,2021-09-10 01:26:51.290
10,651124,2021-09-10 01:26:51.298
10,651125,2021-09-10 01:26:51.306
10,651126,2021-09-10 01:26:51.314
10,651127,2021-09-10 01:26:51.322
10,651128,2021-09-10 01:26:51.330
10,651129,2021-09-10 01:26:51.338
10,651130,2021-09-10 01:26:51.346
10,651131,2021-09-10 01:26:51.354
10,651132,2021-09-10 01:26:51.362
10,651133,2021-09-10 01:26:51.370
10,651134,2021-09-10 01:26:51.378
10,651135,2021-09-10 01:26:51.386
10,651136,2021-09-10 01:26:51.394
10,651137,2021-09-10 01:26:51.402
10,651138,2021-09-10 01:26:51.410
10,651139,2021-09-10 01:26:51.418
10,651140,2021-09-10 01:26:51.426
10,651141,2021-09-10 01:26:51.434
10,651142,2021-09-10 01:26:51.442
10,651143,2021-09-10 01:26:51.450
10,651144,2021-09-10 01:26:51.458
10,651145,2021-09-10 01:26:51.466
10,651146,2021-09-10 01:26:51.474
10,651147,2021-09-10 01:26:51.482
10,651148,2021-09-10 01:26:51.490
10,651149,2021-09-10 01:26:51.498
10,651150,2021-09-10 01:26:51.506
10,651151,2021-09-10 01:26:51.514
10,651152,2021-09-10 01:26:51.522
10,651153,2021-09-10 01:26:51.530
10,651154,2021-09-10 01:26:51.538
10,651155,2021-09-10 01:26:51.546
10,651156,2021-09-10 01:26:51.554
10,651157,2021-09-10 01:26:51.562
10,651158,2021-09-10 01:26:51.570
10,651159,2021-09-10 01:26:51.578
10,651160,2021-09-10 01:26:51.586
10,651161,2021-09-10 01:26:51.594
10,651162,2021-09-10 01:26:51.602
10,651163,2021-09-10 01:26:51.610
10,651164,2021-09-10 01:26:51.618
10,651165,2021-09-10 01:26:51.626
10,651166,2021-09-10 01:26:51.634
10,651167,2021-09-10 01:26:51.642
10,651168,2021-09-10 01:26:51.650
10,651169,2021-09-10 01:26:51.658
10,651170,2021-09-10 01:26:51.666
10,651171,2021-09-10 01:26:51.674
10,651172,2021-09-10 01:26:51.682
10,651173,2021-09-10 01:26:51.690
10,651174,2021-09-10 01:26:51.698
10,651175,2021-09-10 01:26:51.706
10,651176,2021-09-10 01:26:51.714
10,651177,2021-09-10 01:26:51.722
10,651178,2021-09-10 01:26:51.730
10,651179,2021-09-10 01:26:51.738
10,651180,2021-09-10 01:26:51.746
10,651181,2021-09-10 01:26:51.754
10,651182,2021-09-10 01:26:51.762
10,651183,2021-09-10 01:26:51.770
10,651184,2021-09-10 01:26:51.778
10,651185,2021-09-10 01:26:51.786
10,651186,2021-09-10 01:26:51.794
10,651187,2021-09-10 01:26:51.802
10,651188,2021-09-10 01:26:51.810
10,651189,2021-09-10 01:26:51.818
10,651190,2021-09-10 01:26:51.826
10,651191,2021-09-10 01:26:51.834
10,651192,2021-09-10 01:26:51.842
10,651193,2021-09-10 01:26:51.850
10,651194,2021-09-10 01:26:51.858
10,651195,2021-09-10 01:26:51.866
10,651196,2021-09-10 01:26:51.874
10,651197,2021-09-10 01:26:51.882
10,651198,2021-09-10 01:26:51.890
10,651199,2021-09-10 01:26:51.898
10,651200,2021-09-10 01:26:51.906
10,651201,2021-09-10 01:26:51.914
10,651202,2021-09-10 01:26:51.922
10,651203,2021-09-10 01:26:51.930
10,651204,2021-09-10 01:26:51.938
10,651205,2021-09-10 01:26:51.946
10,651206,2021-09-10 01:26:51.954
10,651207,2021-09-10 01:26:51.962
10,651208,2021-09-10 01:26:51.970
10,651209,2021-09-10 01:26:51.978
10,651210,2021-09-10 01:26:51.986
10,651211,2021-09-10 01:26:51.994
10,651212,2021-09-10 01:26:52.002
10,651213,2021-09-10 01:26:52.010
10,651214,2021-09-10 01:26:52.018
10,651215,2021-09-10 01:26:52.026
10,651216,2021-09-10 01:26:52.034
10,651217,2021-09-10 01:26:52.042
10,651218,2021-09-10 01:26:52.050
10,651219,2021-09-10 01:26:52.058
10,651220,2021-09-10 01:26:52.066
10,651221,2021-09-10 01:26:52.074
10,651222,2021-09-10 01:26:52.082
10,651223,2021-09-10 01:26:52.090
10,651224,2021-09-10 01:26:52.098
10,651225,2021-09-10 01:26:52.106
10,651226,2021-09-10 01:26:52.114
10,651227,2021-09-10 01:26:52.122
10,651228,2021-09-10 01:26:52.130
10,651229,2021-09-10 01:26:52.138
10,651230,2021-09-10 01:26:52.146
10,651231,2021-09-10 01:26:52.154
10,651232,2021-09-10 01:26:52.162
10,651233,2021-09-10 01:26:52.170
10,651234,2021-09-10 01:26:52.178
10,651235,2021-09-10 01:26:52.186
10,651236,2021-09-10 01:26:52.194
10,651237,2021-09-10 01:26:52.202
10,651238,2021-09-10 01:26:52.210
10,651239,2021-09-10 01:26:52.218
10,651240,2021-09-10 01:26:52.226
10,651241,2021-09-10 01:26:52.234
10,651242,2021-09-10 01:26:52.242
10,651243,2021-09-10 01:26:52.250
10,651244,2021-09-10 01:26:52.258
10,651245,2021-09-10 01:26:52.266
10,651246,2021-09-10 01:26:52.274
10,651247,2021-09-10 01:26:52.282
10,651248,2021-09-10 01:26:52.290
10,651249,2021-09-10 01:26:52.298
10,651250,2021-09-10 01:26:52.306
10,651251,2021-09-10 01:26:52.314
10,651252,2021-09-10 01:26:52.322
10,651253,2021-09-10 01:26:52.330
10,651254,2021-09-10 01:26:52.338
10,651255,2021-09-10 01:26:52.346
10,651256,2021-09-10 01:26:52.354
10,651257,2021-09-10 01:26:52.362
10,651258,2021-09-10 01:26:52.370
10,651259,2021-09-10 01:26:52.378
10,651260,2021-09-10 01:26:52.386
10,651261,2021-09-10 01:26:52.394
10,651262,2021-09-10 01:26:52.402
10,651263,2021-09-10 01:26:52.410
10,651264,2021-09-10 01:26:52.418
10,651265,2021-09-10 01:26:52.426
10,651266,2021-09-10 01:26:52.434
10,651267,2021-09-10 01:26:52.442
10,651268,2021-09-10 01:26:52.450
10,651269,2021-09-10 01:26:52.458
10,651270,2021-09-10 01:26:52.466
10,651271,2021-09-10 01:26:52.474
10,651272,2021-09-10 01:26:52.482
10,651273,2021-09-10 01:26:52.490
10,651274,2021-09-10 01:26:52.498
10,651275,2021-09-10 01:26:52.506
10,651276,2021-09-10 01:26:52.514
10,651277,2021-09-10 01:26:52.522
10,651278,2021-09-10 01:26:52.530
10,651279,2021-09-10 01:26:52.538
10,651280,2021-09-10 01:26:52.546
10,651281,2021-09-10 01:26:52.554
10,651282,2021-09-10 01:26:52.562
10,651283,2021-09-10 01:26:52.570
10,651284,2021-09-10 01:26:52.578
10,651285,2021-09-10 01:26:52.586
10,651286,2021-09-10 01:26:52.594
10,651287,2021-09-10 01:26:52.602
10,651288,2021-09-10 01:26:52.610
10,651289,2021-09-10 01:26:52.618
10,651290,2021-09-10 01:26:52.626
10,651291,2021-09-10 01:26:52.634
10,651292,2021-09-10 01:26:52.642
10,651293,2021-09-10 01:26:52.650
10,651294,2021-09-10 01:26:52.658
10,651295,2021-09-10 01:26:52.666
10,651296,2021-09-10 01:26:52.674
10,651297,2021-09-10 01:26:52.682
10,651298,2021-09-10 01:26:52.690
10,651299,2021-09-10 01:26:52.698
10,651300,2021-09-10 01:26:52.706
10,651301,2021-09-10 01:26:52.714
10,651302,2021-09-10 01:26:52.722
10,651303,2021-09-10 01:26:52.730
10,651304,2021-09-10 01:26:52.738
10,651305,2021-09-10 01:26:52.746
10,651306,2021-09-10 01:26:52.754
10,651307,2021-09-10 01:26:52.762
10,651308,2021-09-10 01:26:52.770
10,651309,2021-09-10 01:26:52.778
10,651310,2021-09-10 01:26:52.786
10,651311,2021-09-10 01:26:52.794
10,651312,2021-09-10 01:26:52.802
10,651313,2021-09-10 01:26:52.810
10,651314,2021-09-10 01:26:52.818
10,651315,2021-09-10 01:26:52.826
10,651316,2021-09-10 01:26:52.834
10,651317,2021-09-10 01:26:52.842
10,651318,2021-09-10 01:26:52.850
10,651319,2021-09-10 01:26:52.858
10,651320,2021-09-10 01:26:52.866
10,651321,2021-09-10 01:26:52.874
10,651322,2021-09-10 01:26:52.882
10,651323,2021-09-10 01:26:52.890
10,651324,2021-09-10 01:26:52.898
10,651325,2021-09-10 01:26:52.906
10,651326,2021-09-10 01:26:52.914
10,651327,2021-09-10 01:26:52.922
10,651328,2021-09-10 01:26:52.930
10,651329,2021-09-10 01:26:52.938
10,651330,2021-09-10 01:26:52.946
10,651331,2021-09-10 01:26:52.954
10,651332,2021-09-10 01:26:52.962
10,651333,2021-09-10 01:26:52.970
10,651334,2021-09-10 01:26:52.978
10,651335,2021-09-10 01:26:52.986
10,651336,2021-09-10 01:26:52.994
10,651337,2021-09-10 01:26:53.002
10,651338,2021-09-10 01:26:53.010
10,651339,2021-09-10 01:26:53.018
10,651340,2021-09-10 01:26:53.026
10,651341,2021-09-10 01:26:53.034
10,651342,2021-09-10 01:26:53.042
10,651343,2021-09-10 01:26:53.050
10,651344,2021-09-10 01:26:53.058
10,651345,2021-09-10 01:26:53.066
10,651346,2021-09-10 01:26:53.074
10,651347,2021-09-10 01:26:53.082
10,651348,2021-09-10 01:26:53.090
10,651349,2021-09-10 01:26:53.098
10,651350,2021-09-10 01:26:53.106
10,651351,2021-09-10 01:26:53.114
10,651352,2021-09-10 01:26:53.122
10,651353,2021-09-10 01:26:53.130
10,651354,2021-09-10 01:26:53.138
10,651355,2021-09-10 01:26:53.146
10,651356,2021-09-10 01:26:53.154
10,651357,2021-09-10 01:26:53.162
10,651358,2021-09-10 01:26:53.170
10,651359,2021-09-10 01:26:53.178
10,651360,2021-09-10 01:26:53.186
10,651361,2021-09-10 01:26:53.194
10,651362,2021-09-10 01:26:53.202
10,651363,2021-09-10 01:26:53.210
10,651364,2021-09-10 01:26:53.218
10,651365,2021-09-10 01:26:53.226
10,651366,2021-09-10 01:26:53.234
10,651367,2021-09-10 01:26:53.242
10,651368,2021-09-10 01:26:53.250
10,651369,2021-09-10 01:26:53.258
10,651370,2021-09-10 01:26:53.266
10,651371,2021-09-10 01:26:53.274
10,651372,2021-09-10 01:26:53.282
10,651373,2021-09-10 01:26:53.290
10,651374,2021-09-10 01:26:53.298
10,651375,2021-09-10 01:26:53.306
10,651376,2021-09-10 01:26:53.314
10,651377,2021-09-10 01:26:53.322
10,651378,2021-09-10 01:26:53.330
10,651379,2021-09-10 01:26:53.338
10,651380,2021-09-10 01:26:53.346
10,651381,2021-09-10 01:26:53.354
10,651382,2021-09-10 01:26:53.362
10,651383,2021-09-10 01:26:53.370
10,651384,2021-09-10 01:26:53.378
10,651385,2021-09-10 01:26:53.386
10,651386,2021-09-10 01:26:53.394
10,651387,2021-09-10 01:26:53.402
10,651388,2021-09-10 01:26:53.410
10,651389,2021-09-10 01:26:53.418
10,651390,2021-09-10 01:26:53.426
10,651391,2021-09-10 01:26:53.434
10,651392,2021-09-10 01:26:53.442
10,651393,2021-09-10 01:26:53.450
10,651394,2021-09-10 01:26:53.458
10,651395,2021-09-10 01:26:53.466
10,651396,2021-09-10 01:26:53.474
10,651397,2021-09-10 01:26:53.482
10,651398,2021-09-10 01:26:53.490
10,651399,2021-09-10 01:26:53.498
10,651400,2021-09-10 01:26:53.506
10,651401,2021-09-10 01:26:53.514
10,651402,2021-09-10 01:26:53.522
10,651403,2021-09-10 01:26:53.530
10,651404,2021-09-10 01:26:53.538
10,651405,2021-09-10 01:26:53.546
10,651406,2021-09-10 01:26:53.554
10,651407,2021-09-10 01:26:53.562
10,651408,2021-09-10 01:26:53.570
10,651409,2021-09-10 01:26:53.578
10,651410,2021-09-10 01:26:53.586
10,651411,2021-09-10 01:26:53.594
10,651412,2021-09-10 01:26:53.602
10,651413,2021-09-10 01:26:53.610
10,651414,2021-09-10 01:26:53.618
10,651415,2021-09-10 01:26:53.626
10,651416,2021-09-10 01:26:53.634
10,651417,2021-09-10 01:26:53.642
10,651418,2021-09-10 01:26:53.650
10,651419,2021-09-10 01:26:53.658
10,651420,2021-09-10 01:26:53.666
10,651421,2021-09-10 01:26:53.674
10,651422,2021-09-10 01:26:53.682
10,651423,2021-09-10 01:26:53.690
10,651424,2021-09-10 01:26:53.698
10,651425,2021-09-10 01:26:53.706
10,651426,2021-09-10 01:26:53.714
10,651427,2021-09-10 01:26:53.722
10,651428,2021-09-10 01:26:53.730
10,651429,2021-09-10 01:26:53.738
10,651430,2021-09-10 01:26:53.746
10,651431,2021-09-10 01:26:53.754
10,651432,2021-09-10 01:26:53.762
10,651433,2021-09-10 01:26:53.770
10,651434,2021-09-10 01:26:53.778
10,651435,2021-09-10 01:26:53.786
10,651436,2021-09-10 01:26:53.794
10,651437,2021-09-10 01:26:53.802
10,651438,2021-09-10 01:26:53.810
10,651439,2021-09-10 01:26:53.818
10,651440,2021-09-10 01:26:53.826
10,651441,2021-09-10 01:26:53.834
10,651442,2021-09-10 01:26:53.842
10,651443,2021-09-10 01:26:53.850
10,651444,2021-09-10 01:26:53.858
10,651445,2021-09-10 01:26:53.866
10,651446,2021-09-10 01:26:53.874
10,651447,2021-09-10 01:26:53.882
10,651448,2021-09-10 01:26:53.890
10,651449,2021-09-10 01:26:53.898
10,651450,2021-09-10 01:26:53.906
10,651451,2021-09-10 01:26:53.914
10,651452,2021-09-10 01:26:53.922
10,651453,2021-09-10 01:26:53.930
10,651454,2021-09-10 01:26:53.938
10,651455,2021-09-10 01:26:53.946
10,651456,2021-09-10 01:26:53.954
10,651457,2021-09-10 01:26:53.962
10,651458,2021-09-10 01:26:53.970
10,651459,2021-09-10 01:26:53.978
10,651460,2021-09-10 01:26:53.986
10,651461,2021-09-10 01:26:53.994
10,651462,2021-09-10 01:26:54.002
10,651463,2021-09-10 01:26:54.010
10,651464,2021-09-10 01:26:54.018
10,651465,2021-09-10 01:26:54.026
10,651466,2021-09-10 01:26:54.034
10,651467,2021-09-10 01:26:54.042
10,651468,2021-09-10 01:26:54.050
10,651469,2021-09-10 01:26:54.058
10,651470,2021-09-10 01:26:54.066
10,651471,2021-09-10 01:26:54.074
10,651472,2021-09-10 01:26:54.082
10,651473,2021-09-10 01:26:54.090
10,651474,2021-09-10 01:26:54.098
10,651475,2021-09-10 01:26:54.106
10,651476,2021-09-10 01:26:54.114
10,651477,2021-09-10 01:26:54.122
10,651478,2021-09-10 01:26:54.130
10,651479,2021-09-10 01:26:54.138
10,651480,2021-09-10 01:26:54.146
10,651481,2021-09-10 01:26:54.154
10,651482,2021-09-10 01:26:54.162
10,651483,2021-09-10 01:26:54.170
10,651484,2021-09-10 01:26:54.178
10,651485,2021-09-10 01:26:54.186
10,651486,2021-09-10 01:26:54.194
